JT9
Wavelength = 1.54059
32	4.00
32.02	5.00
32.04	4.00
32.06	1.00
32.08	4.00
32.1	3.00
32.12	7.00
32.14	2.00
32.16	2.00
32.18	3.00
32.2	3.00
32.22	4.00
32.24	4.00
32.26	3.00
32.28	6.00
32.3	12.00
32.32	6.00
32.34	6.00
32.36	7.00
32.38	3.00
32.4	3.00
32.42	8.00
32.44	7.00
32.46	4.00
32.48	6.00
32.5	5.00
32.52	4.00
32.54	9.00
32.56	8.00
32.58	6.00
32.6	3.00
32.62	7.00
32.64	6.00
32.66	5.00
32.68	8.00
32.7	3.00
32.72	2.00
32.74	11.00
32.76	11.00
32.78	152.00
32.8	434.00
32.82	20.00
32.84	19.00
32.86	15.00
32.88	7.00
32.9	11.00
32.92	10.00
32.94	7.00
32.96	3.00
32.98	3.00
33	4.00
33.02	3.00
33.04	2.00
33.06	7.00
33.08	6.00
33.1	4.00
33.12	9.00
33.14	6.00
33.16	7.00
33.18	2.00
33.2	8.00
33.22	5.00
33.24	1.00
33.26	1.00
33.28	1.00
33.3	4.00
33.32	5.00
33.34	4.00
33.36	7.00
33.38	3.00
33.4	8.00
33.42	4.00
33.44	7.00
33.46	4.00
33.48	2.00
33.5	9.00
33.52	7.00
33.54	7.00
33.56	2.00
33.58	6.00
33.6	3.00
33.62	4.00
33.64	8.00
33.66	3.00
33.68	5.00
33.7	8.00
33.72	9.00
33.74	6.00
33.76	4.00
33.78	3.00
33.8	5.00
33.82	7.00
33.84	3.00
33.86	4.00
33.88	3.00
33.9	7.00
33.92	5.00
33.94	7.00
33.96	4.00
33.98	6.00
34	10.00
34.02	6.00
34.04	5.00
34.06	4.00
34.08	6.00
34.1	5.00
34.12	8.00
34.14	7.00
34.16	6.00
34.18	7.00
34.2	6.00
34.22	6.00
34.24	7.00
34.26	4.00
34.28	11.00
34.3	5.00
34.32	3.00
34.34	7.00
34.36	4.00
34.38	6.00
34.4	7.00
34.42	6.00
34.44	4.00
34.46	9.00
34.48	7.00
34.5	5.00
34.52	7.00
34.54	9.00
34.56	9.00
34.58	8.00
34.6	3.00
34.62	4.00
34.64	5.00
34.66	4.00
34.68	5.00
34.7	7.00
34.72	5.00
34.74	5.00
34.76	7.00
34.78	9.00
34.8	6.00
34.82	2.00
34.84	4.00
34.86	6.00
34.88	6.00
34.9	6.00
34.92	6.00
34.94	8.00
34.96	8.00
34.98	7.00
35	8.00
35.02	9.00
35.04	11.00
35.06	9.00
35.08	7.00
35.1	12.00
35.12	11.00
35.14	13.00
35.16	7.00
35.18	8.00
35.2	10.00
35.22	5.00
35.24	5.00
35.26	7.00
35.28	8.00
35.3	9.00
35.32	7.00
35.34	5.00
35.36	10.00
35.38	11.00
35.4	8.00
35.42	11.00
35.44	10.00
35.46	9.00
35.48	15.00
35.5	17.00
35.52	10.00
35.54	8.00
35.56	9.00
35.58	6.00
35.6	9.00
35.62	11.00
35.64	11.00
35.66	15.00
35.68	16.00
35.7	13.00
35.72	7.00
35.74	8.00
35.76	7.00
35.78	8.00
35.8	11.00
35.82	13.00
35.84	7.00
35.86	13.00
35.88	13.00
35.9	16.00
35.92	8.00
35.94	14.00
35.96	11.00
35.98	10.00
36	17.00
36.02	8.00
36.04	9.00
36.06	6.00
36.08	15.00
36.1	14.00
36.12	8.00
36.14	17.00
36.16	11.00
36.18	16.00
36.2	16.00
36.22	18.00
36.24	12.00
36.26	15.00
36.28	20.00
36.3	19.00
36.32	19.00
36.34	24.00
36.36	20.00
36.38	20.00
36.4	21.00
36.42	14.00
36.44	25.00
36.46	18.00
36.48	22.00
36.5	21.00
36.52	28.00
36.54	21.00
36.56	18.00
36.58	27.00
36.6	28.00
36.62	20.00
36.64	25.00
36.66	29.00
36.68	27.00
36.7	33.00
36.72	28.00
36.74	32.00
36.76	31.00
36.78	32.00
36.8	35.00
36.82	33.00
36.84	33.00
36.86	34.00
36.88	36.00
36.9	48.00
36.92	61.00
36.94	47.00
36.96	44.00
36.98	52.00
37	58.00
37.02	48.00
37.04	48.00
37.06	57.00
37.08	63.00
37.1	68.00
37.12	75.00
37.14	75.00
37.16	83.00
37.18	81.00
37.2	113.00
37.22	88.00
37.24	100.00
37.26	121.00
37.28	107.00
37.3	127.00
37.32	159.00
37.34	136.00
37.36	167.00
37.38	193.00
37.4	207.00
37.42	222.00
37.44	248.00
37.46	305.00
37.48	278.00
37.5	352.00
37.52	360.00
37.54	413.00
37.56	445.00
37.58	490.00
37.6	583.00
37.62	685.00
37.64	722.00
37.66	832.00
37.68	951.00
37.7	1035.00
37.72	1174.00
37.74	1331.00
37.76	1461.00
37.78	1664.00
37.8	1910.00
37.82	2069.00
37.84	2424.00
37.86	2590.00
37.88	2903.00
37.9	3156.00
37.92	3410.00
37.94	3769.00
37.96	3872.00
37.98	4063.00
38	4521.00
38.02	4768.00
38.04	4901.00
38.06	4902.00
38.08	4902.00
38.1	5002.00
38.12	4970.00
38.14	5155.00
38.16	4912.00
38.18	4829.00
38.2	4615.00
38.22	4563.00
38.24	4242.00
38.26	4033.00
38.28	3710.00
38.3	3477.00
38.32	3243.00
38.34	3041.00
38.36	2875.00
38.38	2398.00
38.4	2230.00
38.42	2002.00
38.44	1811.00
38.46	1626.00
38.48	1494.00
38.5	1345.00
38.52	1237.00
38.54	1010.00
38.56	937.00
38.58	872.00
38.6	808.00
38.62	673.00
38.64	646.00
38.66	535.00
38.68	504.00
38.7	439.00
38.72	421.00
38.74	408.00
38.76	361.00
38.78	326.00
38.8	298.00
38.82	249.00
38.84	240.00
38.86	213.00
38.88	188.00
38.9	197.00
38.92	180.00
38.94	159.00
38.96	159.00
38.98	140.00
39	129.00
39.02	122.00
39.04	118.00
39.06	91.00
39.08	89.00
39.1	81.00
39.12	74.00
39.14	76.00
39.16	73.00
39.18	73.00
39.2	83.00
39.22	76.00
39.24	61.00
39.26	50.00
39.28	55.00
39.3	44.00
39.32	56.00
39.34	30.00
39.36	38.00
39.38	39.00
39.4	43.00
39.42	47.00
39.44	29.00
39.46	35.00
39.48	29.00
39.5	28.00
39.52	29.00
39.54	27.00
39.56	27.00
39.58	35.00
39.6	25.00
39.62	32.00
39.64	25.00
39.66	28.00
39.68	26.00
39.7	23.00
39.72	19.00
39.74	19.00
39.76	29.00
39.78	15.00
39.8	17.00
39.82	17.00
39.84	16.00
39.86	9.00
39.88	17.00
39.9	6.00
39.92	13.00
39.94	15.00
39.96	15.00
39.98	18.00
40	14.00
40.02	12.00
40.04	12.00
40.06	12.00
40.08	2.00
40.1	8.00
40.12	13.00
40.14	4.00
40.16	15.00
40.18	15.00
40.2	12.00
40.22	7.00
40.24	9.00
40.26	9.00
40.28	11.00
40.3	11.00
40.32	8.00
40.34	3.00
40.36	11.00
40.38	6.00
40.4	12.00
40.42	9.00
40.44	9.00
40.46	4.00
40.48	3.00
40.5	8.00
40.52	8.00
40.54	12.00
40.56	7.00
40.58	5.00
40.6	7.00
40.62	7.00
40.64	5.00
40.66	9.00
40.68	5.00
40.7	10.00
40.72	8.00
40.74	7.00
40.76	9.00
40.78	6.00
40.8	7.00
40.82	9.00
40.84	5.00
40.86	6.00
40.88	6.00
40.9	5.00
40.92	7.00
40.94	7.00
40.96	7.00
40.98	1.00
41	10.00
