0.1K_2Mo_SiO2_corr
Wavelength = 1.78899
20.0001	447.00
20.0431	460.00
20.0861	424.00
20.1291	437.00
20.1721	451.00
20.2151	464.00
20.2581	456.00
20.3011	463.00
20.3441	426.00
20.3871	482.00
20.4301	418.00
20.4731	459.00
20.5161	445.00
20.5591	442.00
20.6021	486.00
20.6451	438.00
20.6882	437.00
20.7312	463.00
20.7742	459.00
20.8172	544.00
20.8602	457.00
20.9032	450.00
20.9462	458.00
20.9892	475.00
21.0322	468.00
21.0752	459.00
21.1182	446.00
21.1612	499.00
21.2042	465.00
21.2472	453.00
21.2902	454.00
21.3332	466.00
21.3762	493.00
21.4192	434.00
21.4622	451.00
21.5052	454.00
21.5482	454.00
21.5912	449.00
21.6342	445.00
21.6772	461.00
21.7202	458.00
21.7632	441.00
21.8062	443.00
21.8492	475.00
21.8922	465.00
21.9352	448.00
21.9782	436.00
22.0212	478.00
22.0642	441.00
22.1072	499.00
22.1503	403.00
22.1933	463.00
22.2363	462.00
22.2793	481.00
22.3223	458.00
22.3653	461.00
22.4083	464.00
22.4513	476.00
22.4943	426.00
22.5373	461.00
22.5803	530.00
22.6233	477.00
22.6663	469.00
22.7093	491.00
22.7523	450.00
22.7953	477.00
22.8383	457.00
22.8813	494.00
22.9243	460.00
22.9673	468.00
23.0103	442.00
23.0533	485.00
23.0963	423.00
23.1393	460.00
23.1823	468.00
23.2253	452.00
23.2683	473.00
23.3113	463.00
23.3543	477.00
23.3973	444.00
23.4403	434.00
23.4833	499.00
23.5263	440.00
23.5694	442.00
23.6124	475.00
23.6554	470.00
23.6984	447.00
23.7414	470.00
23.7844	487.00
23.8274	459.00
23.8704	466.00
23.9134	462.00
23.9564	437.00
23.9994	434.00
24.0424	461.00
24.0854	435.00
24.1284	443.00
24.1714	472.00
24.2144	435.00
24.2574	451.00
24.3004	458.00
24.3434	473.00
24.3864	473.00
24.4294	444.00
24.4724	443.00
24.5154	480.00
24.5584	484.00
24.6014	429.00
24.6444	494.00
24.6874	485.00
24.7304	487.00
24.7734	456.00
24.8164	473.00
24.8594	518.00
24.9024	477.00
24.9454	458.00
24.9884	476.00
25.0315	446.00
25.0745	437.00
25.1175	438.00
25.1605	496.00
25.2035	522.00
25.2465	439.00
25.2895	454.00
25.3325	424.00
25.3755	454.00
25.4185	449.00
25.4615	430.00
25.5045	432.00
25.5475	485.00
25.5905	440.00
25.6335	404.00
25.6765	446.00
25.7195	444.00
25.7625	447.00
25.8055	477.00
25.8485	431.00
25.8915	436.00
25.9345	449.00
25.9775	460.00
26.0205	474.00
26.0635	458.00
26.1065	496.00
26.1495	461.00
26.1925	471.00
26.2355	439.00
26.2785	468.00
26.3215	460.00
26.3645	460.00
26.4075	429.00
26.4505	420.00
26.4936	458.00
26.5366	389.00
26.5796	434.00
26.6226	460.00
26.6656	432.00
26.7086	445.00
26.7516	462.00
26.7946	441.00
26.8376	399.00
26.8806	426.00
26.9236	427.00
26.9666	422.00
27.0096	434.00
27.0526	402.00
27.0956	428.00
27.1386	402.00
27.1816	432.00
27.2246	450.00
27.2676	424.00
27.3106	400.00
27.3536	371.00
27.3966	427.00
27.4396	435.00
27.4826	427.00
27.5256	439.00
27.5686	449.00
27.6116	385.00
27.6546	447.00
27.6976	394.00
27.7406	407.00
27.7836	387.00
27.8266	389.00
27.8696	417.00
27.9127	399.00
27.9557	395.00
27.9987	372.00
28.0417	427.00
28.0847	408.00
28.1277	391.00
28.1707	417.00
28.2137	374.00
28.2567	400.00
28.2997	389.00
28.3427	394.00
28.3857	402.00
28.4287	385.00
28.4717	364.00
28.5147	385.00
28.5577	389.00
28.6007	408.00
28.6437	364.00
28.6867	363.00
28.7297	387.00
28.7727	401.00
28.8157	373.00
28.8587	417.00
28.9017	396.00
28.9447	382.00
28.9877	355.00
29.0307	358.00
29.0737	402.00
29.1167	365.00
29.1597	348.00
29.2027	382.00
29.2457	353.00
29.2887	332.00
29.3317	376.00
29.3748	356.00
29.4178	374.00
29.4608	325.00
29.5038	362.00
29.5468	358.00
29.5898	363.00
29.6328	368.00
29.6758	347.00
29.7188	353.00
29.7618	317.00
29.8048	368.00
29.8478	372.00
29.8908	353.00
29.9338	364.00
29.9768	320.00
30.0198	333.00
30.0628	318.00
30.1058	339.00
30.1488	313.00
30.1918	365.00
30.2348	343.00
30.2778	332.00
30.3208	353.00
30.3638	335.00
30.4068	303.00
30.4498	296.00
30.4928	361.00
30.5358	330.00
30.5788	312.00
30.6218	328.00
30.6648	372.00
30.7078	311.00
30.7508	328.00
30.7938	313.00
30.8369	292.00
30.8799	304.00
30.9229	302.00
30.9659	317.00
31.0089	314.00
31.0519	303.00
31.0949	315.00
31.1379	311.00
31.1809	327.00
31.2239	285.00
31.2669	294.00
31.3099	314.00
31.3529	300.00
31.3959	304.00
31.4389	282.00
31.4819	271.00
31.5249	279.00
31.5679	311.00
31.6109	296.00
31.6539	264.00
31.6969	287.00
31.7399	297.00
31.7829	294.00
31.8259	279.00
31.8689	292.00
31.9119	280.00
31.9549	311.00
31.9979	287.00
32.0409	258.00
32.0839	287.00
32.1269	287.00
32.1699	262.00
32.2129	283.00
32.2559	300.00
32.299	282.00
32.342	277.00
32.385	279.00
32.428	289.00
32.471	274.00
32.514	252.00
32.557	283.00
32.6	284.00
32.643	282.00
32.686	241.00
32.729	277.00
32.772	284.00
32.815	235.00
32.858	297.00
32.901	270.00
32.944	280.00
32.987	246.00
33.03	223.00
33.073	289.00
33.116	277.00
33.159	271.00
33.202	244.00
33.245	263.00
33.288	253.00
33.331	265.00
33.374	257.00
33.417	290.00
33.46	263.00
33.503	283.00
33.546	272.00
33.589	281.00
33.632	263.00
33.675	259.00
33.7181	239.00
33.7611	239.00
33.8041	250.00
33.8471	246.00
33.8901	220.00
33.9331	252.00
33.9761	267.00
34.0191	261.00
34.0621	236.00
34.1051	222.00
34.1481	231.00
34.1911	247.00
34.2341	243.00
34.2771	244.00
34.3201	243.00
34.3631	232.00
34.4061	234.00
34.4491	244.00
34.4921	236.00
34.5351	225.00
34.5781	250.00
34.6211	246.00
34.6641	241.00
34.7071	242.00
34.7501	239.00
34.7931	235.00
34.8361	220.00
34.8791	220.00
34.9221	240.00
34.9651	265.00
35.0081	224.00
35.0511	207.00
35.0941	206.00
35.1371	238.00
35.1802	235.00
35.2232	185.00
35.2662	220.00
35.3092	230.00
35.3522	207.00
35.3952	223.00
35.4382	234.00
35.4812	212.00
35.5242	195.00
35.5672	248.00
35.6102	245.00
35.6532	227.00
35.6962	209.00
35.7392	213.00
35.7822	234.00
35.8252	234.00
35.8682	210.00
35.9112	208.00
35.9542	202.00
35.9972	216.00
36.0402	223.00
36.0832	192.00
36.1262	193.00
36.1692	207.00
36.2122	195.00
36.2552	213.00
36.2982	201.00
36.3412	211.00
36.3842	212.00
36.4272	194.00
36.4702	188.00
36.5132	197.00
36.5562	215.00
36.5992	195.00
36.6423	207.00
36.6853	212.00
36.7283	179.00
36.7713	217.00
36.8143	195.00
36.8573	167.00
36.9003	217.00
36.9433	206.00
36.9863	190.00
37.0293	190.00
37.0723	208.00
37.1153	186.00
37.1583	167.00
37.2013	189.00
37.2443	181.00
37.2873	184.00
37.3303	193.00
37.3733	210.00
37.4163	186.00
37.4593	166.00
37.5023	212.00
37.5453	207.00
37.5883	200.00
37.6313	180.00
37.6743	198.00
37.7173	220.00
37.7603	186.00
37.8033	204.00
37.8463	170.00
37.8893	162.00
37.9323	202.00
37.9753	175.00
38.0183	188.00
38.0614	198.00
38.1044	186.00
38.1474	167.00
38.1904	197.00
38.2334	204.00
38.2764	188.00
38.3194	208.00
38.3624	200.00
38.4054	170.00
38.4484	169.00
38.4914	161.00
38.5344	190.00
38.5774	175.00
38.6204	178.00
38.6634	174.00
38.7064	182.00
38.7494	185.00
38.7924	177.00
38.8354	177.00
38.8784	177.00
38.9214	166.00
38.9644	168.00
39.0074	203.00
39.0504	183.00
39.0934	171.00
39.1364	174.00
39.1794	175.00
39.2224	177.00
39.2654	177.00
39.3084	174.00
39.3514	188.00
39.3944	194.00
39.4374	205.00
39.4804	169.00
39.5235	163.00
39.5665	182.00
39.6095	177.00
39.6525	185.00
39.6955	182.00
39.7385	178.00
39.7815	184.00
39.8245	173.00
39.8675	226.00
39.9105	185.00
39.9535	183.00
39.9965	189.00
40.0395	161.00
40.0825	177.00
40.1255	179.00
40.1685	168.00
40.2115	193.00
40.2545	186.00
40.2975	170.00
40.3405	200.00
40.3835	187.00
40.4265	198.00
40.4695	186.00
40.5125	179.00
40.5555	165.00
40.5985	209.00
40.6415	187.00
40.6845	169.00
40.7275	184.00
40.7705	163.00
40.8135	187.00
40.8565	192.00
40.8995	171.00
40.9425	193.00
40.9856	180.00
41.0286	172.00
41.0716	178.00
41.1146	185.00
41.1576	164.00
41.2006	188.00
41.2436	182.00
41.2866	189.00
41.3296	189.00
41.3726	159.00
41.4156	179.00
41.4586	177.00
41.5016	177.00
41.5446	195.00
41.5876	184.00
41.6306	176.00
41.6736	195.00
41.7166	174.00
41.7596	172.00
41.8026	170.00
41.8456	174.00
41.8886	165.00
41.9316	198.00
41.9746	179.00
42.0176	202.00
42.0606	181.00
42.1036	191.00
42.1466	192.00
42.1896	159.00
42.2326	179.00
42.2756	168.00
42.3186	191.00
42.3616	186.00
42.4046	185.00
42.4477	174.00
42.4907	191.00
42.5337	182.00
42.5767	173.00
42.6197	196.00
42.6627	185.00
42.7057	192.00
42.7487	197.00
42.7917	193.00
42.8347	174.00
42.8777	189.00
42.9207	185.00
42.9637	188.00
43.0067	204.00
43.0497	180.00
43.0927	186.00
43.1357	174.00
43.1787	185.00
43.2217	192.00
43.2647	218.00
43.3077	199.00
43.3507	172.00
43.3937	195.00
43.4367	181.00
43.4797	198.00
43.5227	195.00
43.5657	168.00
43.6087	214.00
43.6517	190.00
43.6947	189.00
43.7377	184.00
43.7807	211.00
43.8237	208.00
43.8668	192.00
43.9098	202.00
43.9528	186.00
43.9958	209.00
44.0388	205.00
44.0818	174.00
44.1248	186.00
44.1678	175.00
44.2108	173.00
44.2538	176.00
44.2968	192.00
44.3398	177.00
44.3828	161.00
44.4258	202.00
44.4688	172.00
44.5118	172.00
44.5548	166.00
44.5978	156.00
44.6408	174.00
44.6838	189.00
44.7268	170.00
44.7698	162.00
44.8128	180.00
44.8558	197.00
44.8988	159.00
44.9418	152.00
44.9848	166.00
45.0278	191.00
45.0708	156.00
45.1138	174.00
45.1568	163.00
45.1998	150.00
45.2428	153.00
45.2858	161.00
45.3289	161.00
45.3719	169.00
45.4149	160.00
45.4579	178.00
45.5009	187.00
45.5439	161.00
45.5869	149.00
45.6299	147.00
45.6729	159.00
45.7159	165.00
45.7589	178.00
45.8019	199.00
45.8449	177.00
45.8879	193.00
45.9309	175.00
45.9739	171.00
46.0169	188.00
46.0599	182.00
46.1029	187.00
46.1459	175.00
46.1889	195.00
46.2319	177.00
46.2749	191.00
46.3179	186.00
46.3609	170.00
46.4039	188.00
46.4469	176.00
46.4899	146.00
46.5329	177.00
46.5759	147.00
46.6189	172.00
46.6619	141.00
46.7049	166.00
46.7479	169.00
46.791	140.00
46.834	170.00
46.877	154.00
46.92	149.00
46.963	162.00
47.006	149.00
47.049	126.00
47.092	144.00
47.135	146.00
47.178	156.00
47.221	143.00
47.264	145.00
47.307	154.00
47.35	169.00
47.393	142.00
47.436	128.00
47.479	132.00
47.522	148.00
47.565	140.00
47.608	117.00
47.651	136.00
47.694	156.00
47.737	128.00
47.78	147.00
47.823	157.00
47.866	147.00
47.909	160.00
47.952	125.00
47.995	148.00
48.038	129.00
48.081	161.00
48.124	140.00
48.167	159.00
48.2101	112.00
48.2531	156.00
48.2961	148.00
48.3391	121.00
48.3821	138.00
48.4251	135.00
48.4681	143.00
48.5111	129.00
48.5541	141.00
48.5971	147.00
48.6401	132.00
48.6831	139.00
48.7261	152.00
48.7691	119.00
48.8121	124.00
48.8551	146.00
48.8981	152.00
48.9411	135.00
48.9841	122.00
49.0271	119.00
49.0701	113.00
49.1131	130.00
49.1561	165.00
49.1991	128.00
49.2421	126.00
49.2851	139.00
49.3281	138.00
49.3711	133.00
49.4141	143.00
49.4571	125.00
49.5001	128.00
49.5431	121.00
49.5861	132.00
49.6291	123.00
49.6722	131.00
49.7152	141.00
49.7582	132.00
49.8012	116.00
49.8442	126.00
49.8872	133.00
49.9302	117.00
49.9732	133.00
50.0162	123.00
50.0592	124.00
50.1022	124.00
50.1452	144.00
50.1882	121.00
50.2312	139.00
50.2742	130.00
50.3172	134.00
50.3602	123.00
50.4032	116.00
50.4462	148.00
50.4892	114.00
50.5322	148.00
50.5752	133.00
50.6182	127.00
50.6612	113.00
50.7042	114.00
50.7472	139.00
50.7902	111.00
50.8332	129.00
50.8762	134.00
50.9192	141.00
50.9622	131.00
51.0052	126.00
51.0482	116.00
51.0912	108.00
51.1343	129.00
51.1773	121.00
51.2203	131.00
51.2633	108.00
51.3063	114.00
51.3493	132.00
51.3923	131.00
51.4353	140.00
51.4783	118.00
51.5213	124.00
51.5643	110.00
51.6073	116.00
51.6503	129.00
51.6933	134.00
51.7363	123.00
51.7793	120.00
51.8223	119.00
51.8653	98.00
51.9083	117.00
51.9513	111.00
51.9943	129.00
52.0373	110.00
52.0803	107.00
52.1233	114.00
52.1663	115.00
52.2093	106.00
52.2523	101.00
52.2953	102.00
52.3383	122.00
52.3813	108.00
52.4243	114.00
52.4673	124.00
52.5103	105.00
52.5534	107.00
52.5964	103.00
52.6394	103.00
52.6824	111.00
52.7254	109.00
52.7684	111.00
52.8114	118.00
52.8544	102.00
52.8974	97.00
52.9404	102.00
52.9834	101.00
53.0264	87.00
53.0694	84.00
53.1124	104.00
53.1554	117.00
53.1984	88.00
53.2414	106.00
53.2844	99.00
53.3274	102.00
53.3704	107.00
53.4134	103.00
53.4564	95.00
53.4994	105.00
53.5424	100.00
53.5854	105.00
53.6284	113.00
53.6714	87.00
53.7144	96.00
53.7574	96.00
53.8004	125.00
53.8434	114.00
53.8864	106.00
53.9294	114.00
53.9724	90.00
54.0155	86.00
54.0585	100.00
54.1015	96.00
54.1445	114.00
54.1875	106.00
54.2305	94.00
54.2735	95.00
54.3165	105.00
54.3595	104.00
54.4025	108.00
54.4455	114.00
54.4885	91.00
54.5315	109.00
54.5745	92.00
54.6175	93.00
54.6605	96.00
54.7035	96.00
54.7465	95.00
54.7895	102.00
54.8325	101.00
54.8755	101.00
54.9185	87.00
54.9615	89.00
55.0045	107.00
55.0475	86.00
55.0905	106.00
55.1335	102.00
55.1765	91.00
55.2195	104.00
55.2625	98.00
55.3055	93.00
55.3485	85.00
55.3915	85.00
55.4345	92.00
55.4776	83.00
55.5206	90.00
55.5636	98.00
55.6066	110.00
55.6496	78.00
55.6926	93.00
55.7356	96.00
55.7786	93.00
55.8216	85.00
55.8646	94.00
55.9076	84.00
55.9506	81.00
55.9936	97.00
56.0366	92.00
56.0796	102.00
56.1226	92.00
56.1656	85.00
56.2086	89.00
56.2516	107.00
56.2946	92.00
56.3376	103.00
56.3806	82.00
56.4236	96.00
56.4666	88.00
56.5096	100.00
56.5526	76.00
56.5956	79.00
56.6386	89.00
56.6816	97.00
56.7246	99.00
56.7676	95.00
56.8106	120.00
56.8536	92.00
56.8966	92.00
56.9397	90.00
56.9827	92.00
57.0257	94.00
57.0687	112.00
57.1117	90.00
57.1547	100.00
57.1977	76.00
57.2407	105.00
57.2837	91.00
57.3267	82.00
57.3697	82.00
57.4127	90.00
57.4557	100.00
57.4987	86.00
57.5417	83.00
57.5847	92.00
57.6277	81.00
57.6707	90.00
57.7137	88.00
57.7567	107.00
57.7997	93.00
57.8427	83.00
57.8857	83.00
57.9287	85.00
57.9717	60.00
58.0147	92.00
58.0577	91.00
58.1007	87.00
58.1437	97.00
58.1867	109.00
58.2297	82.00
58.2727	83.00
58.3157	83.00
58.3588	86.00
58.4018	88.00
58.4448	89.00
58.4878	102.00
58.5308	97.00
58.5738	77.00
58.6168	92.00
58.6598	87.00
58.7028	94.00
58.7458	81.00
58.7888	94.00
58.8318	102.00
58.8748	88.00
58.9178	93.00
58.9608	73.00
59.0038	104.00
59.0468	89.00
59.0898	84.00
59.1328	94.00
59.1758	77.00
59.2188	93.00
59.2618	92.00
59.3048	105.00
59.3478	93.00
59.3908	92.00
59.4338	74.00
59.4768	76.00
59.5198	73.00
59.5628	90.00
59.6058	98.00
59.6488	94.00
59.6918	76.00
59.7348	95.00
59.7778	83.00
59.8209	96.00
59.8639	83.00
59.9069	89.00
59.9499	78.00
59.9929	91.00
60.0359	92.00
60.0789	92.00
60.1219	82.00
60.1649	71.00
60.2079	84.00
60.2509	88.00
60.2939	90.00
60.3369	94.00
60.3799	91.00
60.4229	87.00
60.4659	85.00
60.5089	86.00
60.5519	77.00
60.5949	72.00
60.6379	95.00
60.6809	101.00
60.7239	89.00
60.7669	84.00
60.8099	67.00
60.8529	95.00
60.8959	82.00
60.9389	102.00
60.9819	70.00
61.0249	98.00
61.0679	84.00
61.1109	88.00
61.1539	92.00
61.1969	77.00
61.2399	81.00
61.283	87.00
61.326	79.00
61.369	87.00
61.412	78.00
61.455	92.00
61.498	92.00
61.541	68.00
61.584	77.00
61.627	89.00
61.67	90.00
61.713	91.00
61.756	90.00
61.799	74.00
61.842	84.00
61.885	89.00
61.928	82.00
61.971	74.00
62.014	81.00
62.057	91.00
62.1	100.00
62.143	90.00
62.186	83.00
62.229	85.00
62.272	89.00
62.315	73.00
62.358	90.00
62.401	94.00
62.444	99.00
62.487	83.00
62.53	83.00
62.573	87.00
62.616	83.00
62.659	82.00
62.7021	80.00
62.7451	86.00
62.7881	67.00
62.8311	65.00
62.8741	89.00
62.9171	90.00
62.9601	83.00
63.0031	96.00
63.0461	80.00
63.0891	91.00
63.1321	90.00
63.1751	87.00
63.2181	82.00
63.2611	76.00
63.3041	75.00
63.3471	77.00
63.3901	68.00
63.4331	82.00
63.4761	80.00
63.5191	84.00
63.5621	93.00
63.6051	82.00
63.6481	76.00
63.6911	78.00
63.7341	69.00
63.7771	74.00
63.8201	81.00
63.8631	89.00
63.9061	71.00
63.9491	80.00
63.9921	66.00
64.0351	81.00
64.0781	105.00
64.1211	91.00
64.1642	77.00
64.2072	84.00
64.2502	82.00
64.2932	65.00
64.3362	102.00
64.3792	76.00
64.4222	88.00
64.4652	90.00
64.5082	79.00
64.5512	73.00
64.5942	80.00
64.6372	89.00
64.6802	92.00
64.7232	85.00
64.7662	70.00
64.8092	102.00
64.8522	75.00
64.8952	85.00
64.9382	84.00
64.9812	96.00
65.0242	69.00
65.0672	78.00
65.1102	99.00
65.1532	66.00
65.1962	65.00
65.2392	73.00
65.2822	80.00
65.3252	80.00
65.3682	69.00
65.4112	66.00
65.4542	80.00
65.4972	79.00
65.5402	57.00
65.5832	71.00
65.6263	91.00
65.6693	85.00
65.7123	64.00
65.7553	76.00
65.7983	88.00
65.8413	79.00
65.8843	62.00
65.9273	84.00
65.9703	79.00
66.0133	91.00
66.0563	76.00
66.0993	82.00
66.1423	73.00
66.1853	75.00
66.2283	76.00
66.2713	86.00
66.3143	76.00
66.3573	61.00
66.4003	85.00
66.4433	77.00
66.4863	78.00
66.5293	73.00
66.5723	92.00
66.6153	68.00
66.6583	83.00
66.7013	67.00
66.7443	77.00
66.7873	81.00
66.8303	84.00
66.8733	69.00
66.9163	61.00
66.9593	76.00
67.0023	65.00
67.0453	74.00
67.0884	79.00
67.1314	63.00
67.1744	81.00
67.2174	75.00
67.2604	78.00
67.3034	67.00
67.3464	56.00
67.3894	76.00
67.4324	64.00
67.4754	71.00
67.5184	69.00
67.5614	80.00
67.6044	68.00
67.6474	66.00
67.6904	79.00
67.7334	80.00
67.7764	73.00
67.8194	84.00
67.8624	79.00
67.9054	73.00
67.9484	60.00
67.9914	80.00
68.0344	70.00
68.0774	79.00
68.1204	66.00
68.1634	63.00
68.2064	86.00
68.2494	65.00
68.2924	70.00
68.3354	83.00
68.3784	76.00
68.4214	70.00
68.4644	72.00
68.5075	75.00
68.5505	74.00
68.5935	82.00
68.6365	82.00
68.6795	81.00
68.7225	88.00
68.7655	73.00
68.8085	84.00
68.8515	78.00
68.8945	77.00
68.9375	68.00
68.9805	75.00
69.0235	69.00
69.0665	72.00
69.1095	61.00
69.1525	88.00
69.1955	78.00
69.2385	76.00
69.2815	73.00
69.3245	82.00
69.3675	77.00
69.4105	94.00
69.4535	70.00
69.4965	69.00
69.5395	76.00
69.5825	100.00
69.6255	67.00
69.6685	91.00
69.7115	77.00
69.7545	58.00
69.7975	68.00
69.8405	77.00
69.8835	77.00
69.9265	73.00
69.9696	59.00
70.0126	70.00
70.0556	62.00
70.0986	67.00
70.1416	81.00
70.1846	57.00
70.2276	71.00
70.2706	65.00
70.3136	88.00
70.3566	83.00
70.3996	74.00
70.4426	76.00
70.4856	68.00
70.5286	91.00
70.5716	94.00
70.6146	77.00
70.6576	77.00
70.7006	86.00
70.7436	78.00
70.7866	84.00
70.8296	74.00
70.8726	71.00
70.9156	84.00
70.9586	68.00
71.0016	66.00
71.0446	76.00
71.0876	84.00
71.1306	86.00
71.1736	69.00
71.2166	80.00
71.2596	82.00
71.3026	79.00
71.3456	65.00
71.3886	85.00
71.4317	93.00
71.4747	93.00
71.5177	83.00
71.5607	66.00
71.6037	70.00
71.6467	78.00
71.6897	82.00
71.7327	74.00
71.7757	91.00
71.8187	88.00
71.8617	83.00
71.9047	92.00
71.9477	81.00
71.9907	79.00
72.0337	97.00
72.0767	100.00
72.1197	83.00
72.1627	61.00
72.2057	87.00
72.2487	82.00
72.2917	79.00
72.3347	90.00
72.3777	90.00
72.4207	83.00
72.4637	77.00
72.5067	100.00
72.5497	100.00
72.5927	98.00
72.6357	103.00
72.6787	106.00
72.7217	91.00
72.7647	99.00
72.8077	89.00
72.8508	105.00
72.8938	97.00
72.9368	81.00
72.9798	96.00
73.0228	93.00
73.0658	108.00
73.1088	110.00
73.1518	109.00
73.1948	80.00
73.2378	100.00
73.2808	112.00
73.3238	88.00
73.3668	89.00
73.4098	113.00
73.4528	87.00
73.4958	111.00
73.5388	114.00
73.5818	89.00
73.6248	104.00
73.6678	98.00
73.7108	80.00
73.7538	75.00
73.7968	95.00
73.8398	101.00
73.8828	86.00
73.9258	109.00
73.9688	100.00
74.0118	89.00
74.0548	96.00
74.0978	103.00
74.1408	86.00
74.1838	86.00
74.2268	112.00
74.2698	100.00
74.3129	98.00
74.3559	72.00
74.3989	86.00
74.4419	83.00
74.4849	109.00
74.5279	80.00
74.5709	95.00
74.6139	88.00
74.6569	92.00
74.6999	83.00
74.7429	88.00
74.7859	81.00
74.8289	80.00
74.8719	86.00
74.9149	105.00
74.9579	98.00
75.0009	80.00
75.0439	100.00
75.0869	87.00
75.1299	105.00
75.1729	82.00
75.2159	86.00
75.2589	92.00
75.3019	82.00
75.3449	87.00
75.3879	85.00
75.4309	95.00
75.4739	84.00
75.5169	77.00
75.5599	88.00
75.6029	88.00
75.6459	77.00
75.6889	83.00
75.7319	77.00
75.775	91.00
75.818	84.00
75.861	99.00
75.904	76.00
75.947	88.00
75.99	84.00
76.033	76.00
76.076	79.00
76.119	94.00
76.162	93.00
76.205	88.00
76.248	78.00
76.291	84.00
76.334	84.00
76.377	73.00
76.42	69.00
76.463	67.00
76.506	93.00
76.549	89.00
76.592	65.00
76.635	101.00
76.678	78.00
76.721	73.00
76.764	88.00
76.807	85.00
76.85	100.00
76.893	60.00
76.936	82.00
76.979	83.00
77.022	69.00
77.065	88.00
77.108	72.00
77.151	75.00
77.1941	77.00
77.2371	69.00
77.2801	80.00
77.3231	75.00
77.3661	95.00
77.4091	76.00
77.4521	73.00
77.4951	82.00
77.5381	84.00
77.5811	80.00
77.6241	94.00
77.6671	84.00
77.7101	78.00
77.7531	73.00
77.7961	58.00
77.8391	80.00
77.8821	81.00
77.9251	54.00
77.9681	88.00
78.0111	73.00
78.0541	71.00
78.0971	85.00
78.1401	77.00
78.1831	61.00
78.2261	73.00
78.2691	89.00
78.3121	75.00
78.3551	71.00
78.3981	82.00
78.4411	86.00
78.4841	73.00
78.5271	60.00
78.5701	64.00
78.6131	86.00
78.6562	74.00
78.6992	78.00
78.7422	78.00
78.7852	94.00
78.8282	72.00
78.8712	85.00
78.9142	62.00
78.9572	69.00
79.0002	63.00
79.0432	70.00
79.0862	79.00
79.1292	65.00
79.1722	78.00
79.2152	66.00
79.2582	87.00
79.3012	76.00
79.3442	74.00
79.3872	72.00
79.4302	97.00
79.4732	65.00
79.5162	74.00
79.5592	68.00
79.6022	74.00
79.6452	63.00
79.6882	74.00
79.7312	59.00
79.7742	74.00
79.8172	94.00
79.8602	68.00
79.9032	74.00
79.9462	76.00
79.9892	74.00
80.0322	69.00
80.0752	62.00
80.1183	71.00
80.1613	71.00
80.2043	75.00
80.2473	79.00
80.2903	75.00
80.3333	80.00
80.3763	71.00
80.4193	82.00
80.4623	78.00
80.5053	73.00
80.5483	82.00
80.5913	70.00
80.6343	77.00
80.6773	67.00
80.7203	73.00
80.7633	76.00
80.8063	96.00
80.8493	79.00
80.8923	80.00
80.9353	88.00
80.9783	68.00
81.0213	70.00
81.0643	77.00
81.1073	71.00
81.1503	87.00
81.1933	90.00
81.2363	67.00
81.2793	68.00
81.3223	78.00
81.3653	77.00
81.4083	73.00
81.4513	69.00
81.4943	70.00
81.5373	86.00
81.5804	84.00
81.6234	72.00
81.6664	72.00
81.7094	78.00
81.7524	76.00
81.7954	82.00
81.8384	66.00
81.8814	82.00
81.9244	71.00
81.9674	71.00
82.0104	79.00
82.0534	68.00
82.0964	77.00
82.1394	57.00
82.1824	84.00
82.2254	73.00
82.2684	77.00
82.3114	79.00
82.3544	75.00
82.3974	82.00
82.4404	88.00
82.4834	75.00
82.5264	74.00
82.5694	90.00
82.6124	76.00
82.6554	75.00
82.6984	74.00
82.7414	73.00
82.7844	74.00
82.8274	79.00
82.8704	78.00
82.9134	56.00
82.9564	92.00
82.9995	64.00
83.0425	83.00
83.0855	76.00
83.1285	84.00
83.1715	84.00
83.2145	61.00
83.2575	65.00
83.3005	61.00
83.3435	65.00
83.3865	85.00
83.4295	83.00
83.4725	68.00
83.5155	86.00
83.5585	94.00
83.6015	67.00
83.6445	75.00
83.6875	59.00
83.7305	66.00
83.7735	68.00
83.8165	78.00
83.8595	73.00
83.9025	64.00
83.9455	62.00
83.9885	82.00
84.0315	65.00
84.0745	71.00
84.1175	67.00
84.1605	69.00
84.2035	65.00
84.2465	66.00
84.2895	63.00
84.3325	82.00
84.3755	72.00
84.4185	77.00
84.4616	65.00
84.5046	58.00
84.5476	82.00
84.5906	76.00
84.6336	62.00
84.6766	73.00
84.7196	68.00
84.7626	75.00
84.8056	71.00
84.8486	61.00
84.8916	77.00
84.9346	67.00
84.9776	84.00
85.0206	66.00
85.0636	75.00
85.1066	79.00
85.1496	66.00
85.1926	75.00
85.2356	51.00
85.2786	64.00
85.3216	78.00
85.3646	73.00
85.4076	73.00
85.4506	79.00
85.4936	58.00
85.5366	71.00
85.5796	73.00
85.6226	60.00
85.6656	64.00
85.7086	83.00
85.7516	82.00
85.7946	65.00
85.8376	72.00
85.8806	70.00
85.9237	70.00
85.9667	70.00
86.0097	76.00
86.0527	56.00
86.0957	68.00
86.1387	67.00
86.1817	90.00
86.2247	58.00
86.2677	77.00
86.3107	65.00
86.3537	72.00
86.3967	70.00
86.4397	78.00
86.4827	84.00
86.5257	75.00
86.5687	83.00
86.6117	75.00
86.6547	70.00
86.6977	86.00
86.7407	80.00
86.7837	79.00
86.8267	89.00
86.8697	93.00
86.9127	68.00
86.9557	64.00
86.9987	78.00
87.0417	63.00
87.0847	56.00
87.1277	92.00
87.1707	88.00
87.2137	63.00
87.2567	68.00
87.2997	64.00
87.3428	70.00
87.3858	71.00
87.4288	74.00
87.4718	80.00
87.5148	73.00
87.5578	78.00
87.6008	76.00
87.6438	88.00
87.6868	66.00
87.7298	86.00
87.7728	91.00
87.8158	76.00
87.8588	72.00
87.9018	70.00
87.9448	84.00
87.9878	62.00
88.0308	87.00
88.0738	78.00
88.1168	87.00
88.1598	71.00
88.2028	73.00
88.2458	79.00
88.2888	99.00
88.3318	80.00
88.3748	75.00
88.4178	99.00
88.4608	82.00
88.5038	70.00
88.5468	86.00
88.5898	66.00
88.6328	70.00
88.6758	75.00
88.7188	80.00
88.7618	85.00
88.8049	88.00
88.8479	66.00
88.8909	82.00
88.9339	96.00
88.9769	103.00
89.0199	101.00
89.0629	91.00
89.1059	94.00
89.1489	73.00
89.1919	103.00
89.2349	84.00
89.2779	90.00
89.3209	87.00
89.3639	55.00
89.4069	101.00
89.4499	73.00
89.4929	82.00
89.5359	80.00
89.5789	76.00
89.6219	86.00
89.6649	92.00
89.7079	79.00
89.7509	81.00
89.7939	82.00
89.8369	80.00
89.8799	93.00
89.9229	102.00
89.9659	98.00
90.0089	74.00
90.0519	91.00
90.0949	86.00
90.1379	73.00
90.1809	87.00
90.2239	77.00
90.267	89.00
90.31	99.00
90.353	87.00
90.396	75.00
90.439	90.00
90.482	86.00
90.525	85.00
90.568	86.00
90.611	106.00
90.654	83.00
90.697	80.00
90.74	83.00
90.783	78.00
90.826	70.00
90.869	92.00
90.912	79.00
90.955	103.00
90.998	73.00
91.041	95.00
91.084	83.00
91.127	80.00
91.17	86.00
91.213	80.00
91.256	99.00
91.299	82.00
91.342	81.00
91.385	80.00
91.428	101.00
91.471	88.00
91.514	77.00
91.557	95.00
91.6	82.00
91.643	78.00
91.686	97.00
91.7291	80.00
91.7721	75.00
91.8151	80.00
91.8581	75.00
91.9011	76.00
91.9441	76.00
91.9871	79.00
92.0301	88.00
92.0731	68.00
92.1161	89.00
92.1591	88.00
92.2021	80.00
92.2451	77.00
92.2881	85.00
92.3311	69.00
92.3741	80.00
92.4171	71.00
92.4601	79.00
92.5031	76.00
92.5461	83.00
92.5891	91.00
92.6321	94.00
92.6751	64.00
92.7181	65.00
92.7611	87.00
92.8041	78.00
92.8471	86.00
92.8901	82.00
92.9331	79.00
92.9761	77.00
93.0191	75.00
93.0621	73.00
93.1051	73.00
93.1482	81.00
93.1912	67.00
93.2342	66.00
93.2772	67.00
93.3202	83.00
93.3632	76.00
93.4062	77.00
93.4492	65.00
93.4922	65.00
93.5352	86.00
93.5782	60.00
93.6212	71.00
93.6642	79.00
93.7072	76.00
93.7502	82.00
93.7932	87.00
93.8362	77.00
93.8792	80.00
93.9222	67.00
93.9652	85.00
94.0082	60.00
94.0512	68.00
94.0942	74.00
94.1372	76.00
94.1802	89.00
94.2232	64.00
94.2662	70.00
94.3092	75.00
94.3522	84.00
94.3952	75.00
94.4382	55.00
94.4812	88.00
94.5242	86.00
94.5672	58.00
94.6103	90.00
94.6533	86.00
94.6963	63.00
94.7393	73.00
94.7823	63.00
94.8253	82.00
94.8683	78.00
94.9113	66.00
94.9543	86.00
94.9973	71.00
95.0403	71.00
95.0833	75.00
95.1263	71.00
95.1693	78.00
95.2123	66.00
95.2553	88.00
95.2983	55.00
95.3413	73.00
95.3843	75.00
95.4273	56.00
95.4703	73.00
95.5133	73.00
95.5563	71.00
95.5993	77.00
95.6423	60.00
95.6853	75.00
95.7283	88.00
95.7713	52.00
95.8143	71.00
95.8573	80.00
95.9003	69.00
95.9433	71.00
95.9863	61.00
96.0293	81.00
96.0724	66.00
96.1154	72.00
96.1584	76.00
96.2014	69.00
96.2444	65.00
96.2874	73.00
96.3304	68.00
96.3734	70.00
96.4164	66.00
96.4594	76.00
96.5024	62.00
96.5454	77.00
96.5884	68.00
96.6314	71.00
96.6744	65.00
96.7174	75.00
96.7604	77.00
96.8034	67.00
96.8464	70.00
96.8894	66.00
96.9324	79.00
96.9754	67.00
97.0184	74.00
97.0614	70.00
97.1044	56.00
97.1474	83.00
97.1904	68.00
97.2334	80.00
97.2764	78.00
97.3194	50.00
97.3624	61.00
97.4054	72.00
97.4484	63.00
97.4915	66.00
97.5345	67.00
97.5775	64.00
97.6205	68.00
97.6635	57.00
97.7065	66.00
97.7495	70.00
97.7925	61.00
97.8355	63.00
97.8785	68.00
97.9215	76.00
97.9645	50.00
98.0075	64.00
98.0505	62.00
98.0935	49.00
98.1365	64.00
98.1795	71.00
98.2225	59.00
98.2655	76.00
98.3085	64.00
98.3515	71.00
98.3945	64.00
98.4375	61.00
98.4805	63.00
98.5235	62.00
98.5665	77.00
98.6095	64.00
98.6525	81.00
98.6955	61.00
98.7385	57.00
98.7815	78.00
98.8245	73.00
98.8675	57.00
98.9105	72.00
98.9536	65.00
98.9966	65.00
99.0396	57.00
99.0826	62.00
99.1256	64.00
99.1686	68.00
99.2116	65.00
99.2546	56.00
99.2976	61.00
99.3406	82.00
99.3836	68.00
99.4266	65.00
99.4696	66.00
99.5126	53.00
99.5556	71.00
99.5986	50.00
99.6416	65.00
99.6846	60.00
99.7276	55.00
99.7706	58.00
99.8136	77.00
99.8566	52.00
99.8996	59.00
99.9426	55.00
99.9856	59.00
100.0286	56.00
100.0716	65.00
100.1146	68.00
100.1576	69.00
100.2006	56.00
100.2436	62.00
100.2866	52.00
100.3296	46.00
100.3726	59.00
100.4156	50.00
100.4586	74.00
100.5016	79.00
100.5447	67.00
100.5877	54.00
100.6307	58.00
100.6737	67.00
100.7167	53.00
100.7597	67.00
100.8027	58.00
100.8457	58.00
100.8887	82.00
100.9317	62.00
100.9747	68.00
101.0177	56.00
101.0607	54.00
101.1037	66.00
101.1467	54.00
101.1897	58.00
101.2327	51.00
101.2757	62.00
101.3187	55.00
101.3617	51.00
101.4047	52.00
101.4477	53.00
101.4907	68.00
101.5337	60.00
101.5767	56.00
101.6197	65.00
101.6627	54.00
101.7057	41.00
101.7487	66.00
101.7917	52.00
101.8347	67.00
101.8777	55.00
101.9208	47.00
101.9638	47.00
102.0068	64.00
102.0498	56.00
102.0928	59.00
102.1358	55.00
102.1788	61.00
102.2218	64.00
102.2648	54.00
102.3078	53.00
102.3508	52.00
102.3938	65.00
102.4368	59.00
102.4798	65.00
102.5228	54.00
102.5658	56.00
102.6088	58.00
102.6518	53.00
102.6948	70.00
102.7378	69.00
102.7808	60.00
102.8238	67.00
102.8668	61.00
102.9098	50.00
102.9528	68.00
102.9958	47.00
103.0388	55.00
103.0818	54.00
103.1248	54.00
103.1678	60.00
103.2108	61.00
103.2538	60.00
103.2969	52.00
103.3399	60.00
103.3829	57.00
103.4258	53.00
103.4689	59.00
103.5119	44.00
103.5549	45.00
103.5979	49.00
103.6409	51.00
103.6839	55.00
103.7269	59.00
103.7699	48.00
103.8129	60.00
103.8559	50.00
103.8989	53.00
103.9419	51.00
103.9849	61.00
104.0279	52.00
104.0709	45.00
104.1139	47.00
104.1569	54.00
104.1999	50.00
104.2429	54.00
104.2859	56.00
104.3289	56.00
104.3719	48.00
104.4149	43.00
104.4579	66.00
104.5009	49.00
104.5439	61.00
104.5869	56.00
104.6299	38.00
104.6729	52.00
104.7159	48.00
104.7589	57.00
104.8019	59.00
104.8449	50.00
104.888	47.00
104.931	61.00
104.974	47.00
105.017	55.00
105.06	51.00
105.103	62.00
105.146	55.00
105.189	47.00
105.232	55.00
105.275	64.00
105.318	45.00
105.361	49.00
105.404	50.00
105.447	37.00
105.49	49.00
105.533	67.00
105.576	48.00
105.619	52.00
105.662	50.00
105.705	42.00
105.748	54.00
105.791	59.00
105.834	57.00
105.877	43.00
105.92	60.00
105.963	43.00
106.006	51.00
106.049	46.00
106.092	50.00
106.135	52.00
106.178	54.00
106.221	50.00
106.2641	44.00
106.3071	71.00
106.3501	55.00
106.3931	45.00
106.4361	58.00
106.4791	47.00
106.5221	47.00
106.5651	48.00
106.6081	49.00
106.6511	50.00
106.6941	47.00
106.7371	48.00
106.7801	56.00
106.8231	47.00
106.8661	41.00
106.9091	44.00
106.9521	50.00
106.9951	52.00
107.0381	58.00
107.0811	43.00
107.1241	64.00
107.1671	58.00
107.2101	43.00
107.2531	41.00
107.2961	53.00
107.3391	48.00
107.3821	51.00
107.4251	47.00
107.4681	51.00
107.5111	44.00
107.5541	53.00
107.5971	51.00
107.6402	52.00
107.6832	41.00
107.7262	55.00
107.7691	46.00
107.8122	45.00
107.8552	48.00
107.8982	51.00
107.9412	46.00
107.9842	51.00
108.0272	39.00
108.0702	51.00
108.1132	44.00
108.1562	58.00
108.1992	55.00
108.2422	68.00
108.2852	51.00
108.3282	44.00
108.3712	52.00
108.4142	37.00
108.4572	48.00
108.5002	45.00
108.5432	54.00
108.5862	51.00
108.6292	52.00
108.6722	46.00
108.7152	34.00
108.7582	68.00
108.8012	58.00
108.8442	57.00
108.8872	52.00
108.9302	41.00
108.9732	45.00
109.0162	43.00
109.0592	45.00
109.1022	51.00
109.1452	50.00
109.1882	41.00
109.2313	53.00
109.2743	46.00
109.3173	43.00
109.3603	56.00
109.4033	49.00
109.4463	57.00
109.4893	63.00
109.5323	56.00
109.5753	50.00
109.6183	52.00
109.6613	41.00
109.7043	58.00
109.7473	32.00
109.7903	49.00
109.8333	54.00
109.8763	49.00
109.9193	54.00
109.9623	60.00
110.0053	45.00
110.0483	43.00
110.0913	39.00
110.1343	46.00
110.1773	43.00
110.2203	52.00
110.2633	61.00
110.3063	44.00
110.3493	43.00
110.3923	51.00
110.4353	48.00
110.4783	47.00
110.5213	47.00
110.5643	59.00
110.6074	42.00
110.6504	48.00
110.6934	50.00
110.7364	39.00
110.7794	44.00
110.8224	42.00
110.8654	36.00
110.9084	43.00
110.9514	56.00
110.9944	57.00
111.0374	36.00
111.0804	41.00
111.1234	50.00
111.1664	47.00
111.2094	49.00
111.2524	52.00
111.2954	36.00
111.3384	41.00
111.3814	63.00
111.4244	48.00
111.4674	45.00
111.5104	40.00
111.5534	40.00
111.5964	46.00
111.6394	53.00
111.6824	58.00
111.7254	51.00
111.7684	39.00
111.8114	46.00
111.8544	61.00
111.8974	52.00
111.9404	53.00
111.9835	44.00
112.0265	51.00
112.0695	51.00
112.1124	61.00
112.1555	56.00
112.1985	52.00
112.2415	45.00
112.2845	52.00
112.3275	44.00
112.3705	49.00
112.4135	55.00
112.4565	53.00
112.4995	47.00
112.5425	47.00
112.5855	55.00
112.6285	34.00
112.6715	54.00
112.7145	53.00
112.7575	54.00
112.8005	43.00
112.8435	47.00
112.8865	57.00
112.9295	56.00
112.9725	54.00
113.0155	41.00
113.0585	45.00
113.1015	63.00
113.1445	50.00
113.1875	54.00
113.2305	33.00
113.2735	41.00
113.3165	58.00
113.3595	47.00
113.4025	62.00
113.4455	48.00
113.4885	45.00
113.5315	59.00
113.5745	60.00
113.6176	42.00
113.6606	43.00
113.7036	48.00
113.7466	48.00
113.7896	54.00
113.8326	37.00
113.8756	56.00
113.9186	47.00
113.9616	46.00
114.0046	57.00
114.0476	44.00
114.0906	42.00
114.1336	58.00
114.1766	48.00
114.2196	39.00
114.2626	38.00
114.3056	43.00
114.3486	54.00
114.3916	42.00
114.4346	60.00
114.4776	52.00
114.5206	56.00
114.5636	44.00
114.6066	49.00
114.6496	48.00
114.6926	42.00
114.7356	45.00
114.7786	53.00
114.8216	49.00
114.8646	36.00
114.9077	48.00
114.9507	47.00
114.9937	51.00
115.0367	48.00
115.0797	51.00
115.1227	52.00
115.1657	41.00
115.2087	41.00
115.2517	46.00
115.2947	47.00
115.3377	47.00
115.3807	55.00
115.4237	58.00
115.4667	54.00
115.5097	47.00
115.5527	54.00
115.5957	44.00
115.6387	38.00
115.6817	63.00
115.7247	44.00
115.7677	43.00
115.8107	50.00
115.8537	49.00
115.8967	48.00
115.9397	60.00
115.9827	53.00
116.0257	64.00
116.0687	64.00
116.1117	42.00
116.1547	41.00
116.1977	54.00
116.2407	53.00
116.2837	48.00
116.3267	43.00
116.3698	54.00
116.4128	52.00
116.4557	41.00
116.4988	52.00
116.5418	28.00
116.5848	53.00
116.6278	57.00
116.6708	44.00
116.7138	63.00
116.7568	52.00
116.7998	52.00
116.8428	54.00
116.8858	52.00
116.9288	52.00
116.9718	45.00
117.0148	42.00
117.0578	43.00
117.1008	61.00
117.1438	52.00
117.1868	45.00
117.2298	39.00
117.2728	48.00
117.3158	53.00
117.3588	54.00
117.4018	51.00
117.4448	43.00
117.4878	40.00
117.5308	51.00
117.5738	54.00
117.6168	32.00
117.6598	41.00
117.7028	51.00
117.7458	46.00
117.7888	48.00
117.8318	47.00
117.8748	63.00
117.9178	49.00
117.9609	45.00
118.0039	50.00
118.0469	53.00
118.0899	49.00
118.1329	51.00
118.1759	56.00
118.2189	49.00
118.2619	54.00
118.3049	58.00
118.3479	61.00
118.3909	50.00
118.4339	42.00
118.4769	52.00
118.5199	41.00
118.5629	52.00
118.6059	45.00
118.6489	37.00
118.6919	52.00
118.7349	59.00
118.7779	54.00
118.8209	50.00
118.8639	49.00
118.9069	37.00
118.9499	57.00
118.9929	54.00
119.0359	58.00
119.0789	53.00
119.1219	48.00
119.1649	49.00
119.2079	46.00
119.251	57.00
119.294	58.00
119.337	45.00
119.38	50.00
119.423	59.00
119.466	51.00
119.509	48.00
119.552	54.00
119.595	49.00
119.638	64.00
119.681	56.00
