JT10
Wavelength = 1.54059
32	5.00
32.02	3.00
32.04	6.00
32.06	5.00
32.08	5.00
32.1	4.00
32.12	7.00
32.14	2.00
32.16	4.00
32.18	7.00
32.2	3.00
32.22	4.00
32.24	6.00
32.26	2.00
32.28	6.00
32.3	6.00
32.32	5.00
32.34	5.00
32.36	5.00
32.38	3.00
32.4	5.00
32.42	3.00
32.44	1.00
32.46	9.00
32.48	3.00
32.5	7.00
32.52	2.00
32.54	0.00
32.56	5.00
32.58	6.00
32.6	9.00
32.62	5.00
32.64	5.00
32.66	7.00
32.68	3.00
32.7	6.00
32.72	4.00
32.74	2.00
32.76	5.00
32.78	3.00
32.8	6.00
32.82	4.00
32.84	5.00
32.86	8.00
32.88	8.00
32.9	4.00
32.92	3.00
32.94	5.00
32.96	2.00
32.98	4.00
33	4.00
33.02	5.00
33.04	5.00
33.06	6.00
33.08	11.00
33.1	3.00
33.12	8.00
33.14	5.00
33.16	1.00
33.18	6.00
33.2	7.00
33.22	5.00
33.24	5.00
33.26	6.00
33.28	6.00
33.3	4.00
33.32	6.00
33.34	9.00
33.36	5.00
33.38	3.00
33.4	6.00
33.42	5.00
33.44	5.00
33.46	9.00
33.48	3.00
33.5	5.00
33.52	3.00
33.54	6.00
33.56	5.00
33.58	6.00
33.6	9.00
33.62	4.00
33.64	6.00
33.66	5.00
33.68	8.00
33.7	1.00
33.72	7.00
33.74	6.00
33.76	14.00
33.78	5.00
33.8	5.00
33.82	7.00
33.84	8.00
33.86	3.00
33.88	4.00
33.9	6.00
33.92	9.00
33.94	7.00
33.96	7.00
33.98	7.00
34	5.00
34.02	6.00
34.04	5.00
34.06	7.00
34.08	7.00
34.1	4.00
34.12	5.00
34.14	5.00
34.16	3.00
34.18	2.00
34.2	11.00
34.22	9.00
34.24	5.00
34.26	6.00
34.28	7.00
34.3	7.00
34.32	9.00
34.34	11.00
34.36	6.00
34.38	5.00
34.4	6.00
34.42	7.00
34.44	7.00
34.46	12.00
34.48	12.00
34.5	7.00
34.52	8.00
34.54	6.00
34.56	6.00
34.58	2.00
34.6	5.00
34.62	11.00
34.64	7.00
34.66	5.00
34.68	4.00
34.7	8.00
34.72	7.00
34.74	7.00
34.76	6.00
34.78	9.00
34.8	6.00
34.82	7.00
34.84	7.00
34.86	7.00
34.88	10.00
34.9	5.00
34.92	4.00
34.94	5.00
34.96	14.00
34.98	9.00
35	4.00
35.02	6.00
35.04	4.00
35.06	7.00
35.08	4.00
35.1	12.00
35.12	5.00
35.14	10.00
35.16	6.00
35.18	5.00
35.2	10.00
35.22	12.00
35.24	12.00
35.26	7.00
35.28	7.00
35.3	10.00
35.32	5.00
35.34	9.00
35.36	3.00
35.38	9.00
35.4	10.00
35.42	16.00
35.44	8.00
35.46	12.00
35.48	8.00
35.5	10.00
35.52	11.00
35.54	13.00
35.56	19.00
35.58	10.00
35.6	9.00
35.62	10.00
35.64	10.00
35.66	7.00
35.68	9.00
35.7	14.00
35.72	14.00
35.74	7.00
35.76	7.00
35.78	19.00
35.8	10.00
35.82	12.00
35.84	12.00
35.86	9.00
35.88	13.00
35.9	18.00
35.92	12.00
35.94	15.00
35.96	16.00
35.98	15.00
36	14.00
36.02	15.00
36.04	22.00
36.06	13.00
36.08	16.00
36.1	20.00
36.12	10.00
36.14	10.00
36.16	15.00
36.18	13.00
36.2	17.00
36.22	15.00
36.24	19.00
36.26	17.00
36.28	17.00
36.3	19.00
36.32	23.00
36.34	19.00
36.36	23.00
36.38	28.00
36.4	22.00
36.42	21.00
36.44	29.00
36.46	24.00
36.48	29.00
36.5	24.00
36.52	14.00
36.54	31.00
36.56	30.00
36.58	28.00
36.6	29.00
36.62	25.00
36.64	30.00
36.66	34.00
36.68	37.00
36.7	42.00
36.72	32.00
36.74	35.00
36.76	36.00
36.78	38.00
36.8	41.00
36.82	30.00
36.84	45.00
36.86	46.00
36.88	48.00
36.9	53.00
36.92	54.00
36.94	49.00
36.96	48.00
36.98	54.00
37	58.00
37.02	71.00
37.04	54.00
37.06	69.00
37.08	58.00
37.1	75.00
37.12	73.00
37.14	78.00
37.16	81.00
37.18	89.00
37.2	91.00
37.22	110.00
37.24	103.00
37.26	121.00
37.28	109.00
37.3	147.00
37.32	157.00
37.34	170.00
37.36	163.00
37.38	177.00
37.4	215.00
37.42	229.00
37.44	256.00
37.46	298.00
37.48	341.00
37.5	327.00
37.52	376.00
37.54	410.00
37.56	469.00
37.58	563.00
37.6	601.00
37.62	632.00
37.64	777.00
37.66	815.00
37.68	996.00
37.7	1141.00
37.72	1256.00
37.74	1548.00
37.76	1751.00
37.78	1998.00
37.8	2403.00
37.82	2664.00
37.84	3019.00
37.86	3556.00
37.88	4138.00
37.9	4677.00
37.92	5530.00
37.94	6311.00
37.96	6961.00
37.98	7730.00
38	8476.00
38.02	9565.00
38.04	10313.00
38.06	10923.00
38.08	11842.00
38.1	12527.00
38.12	13216.00
38.14	13478.00
38.16	14129.00
38.18	14143.00
38.2	14187.00
38.22	14083.00
38.24	13782.00
38.26	13871.00
38.28	13218.00
38.3	12659.00
38.32	11938.00
38.34	11317.00
38.36	10523.00
38.38	9752.00
38.4	8785.00
38.42	7795.00
38.44	7091.00
38.46	6485.00
38.48	5656.00
38.5	5003.00
38.52	4419.00
38.54	3990.00
38.56	3469.00
38.58	2923.00
38.6	2648.00
38.62	2408.00
38.64	2060.00
38.66	1895.00
38.68	1668.00
38.7	1487.00
38.72	1376.00
38.74	1164.00
38.76	1057.00
38.78	918.00
38.8	855.00
38.82	781.00
38.84	658.00
38.86	665.00
38.88	604.00
38.9	541.00
38.92	501.00
38.94	449.00
38.96	365.00
38.98	376.00
39	317.00
39.02	333.00
39.04	292.00
39.06	269.00
39.08	263.00
39.1	216.00
39.12	223.00
39.14	175.00
39.16	176.00
39.18	180.00
39.2	150.00
39.22	154.00
39.24	141.00
39.26	127.00
39.28	119.00
39.3	97.00
39.32	83.00
39.34	111.00
39.36	87.00
39.38	85.00
39.4	72.00
39.42	83.00
39.44	85.00
39.46	79.00
39.48	75.00
39.5	62.00
39.52	63.00
39.54	48.00
39.56	49.00
39.58	66.00
39.6	49.00
39.62	56.00
39.64	44.00
39.66	54.00
39.68	38.00
39.7	47.00
39.72	41.00
39.74	36.00
39.76	31.00
39.78	38.00
39.8	18.00
39.82	37.00
39.84	27.00
39.86	35.00
39.88	31.00
39.9	26.00
39.92	32.00
39.94	24.00
39.96	24.00
39.98	18.00
40	22.00
40.02	27.00
40.04	19.00
40.06	19.00
40.08	20.00
40.1	16.00
40.12	21.00
40.14	12.00
40.16	20.00
40.18	26.00
40.2	20.00
40.22	20.00
40.24	22.00
40.26	23.00
40.28	16.00
40.3	12.00
40.32	10.00
40.34	17.00
40.36	8.00
40.38	11.00
40.4	20.00
40.42	13.00
40.44	15.00
40.46	10.00
40.48	12.00
40.5	12.00
40.52	11.00
40.54	15.00
40.56	11.00
40.58	7.00
40.6	6.00
40.62	15.00
40.64	8.00
40.66	16.00
40.68	5.00
40.7	8.00
40.72	11.00
40.74	10.00
40.76	10.00
40.78	4.00
40.8	9.00
40.82	13.00
40.84	10.00
40.86	4.00
40.88	11.00
40.9	8.00
40.92	7.00
40.94	4.00
40.96	7.00
40.98	13.00
41	16.00
