JT8
Wavelength = 1.54059
32	5.00
32.02	10.00
32.04	7.00
32.06	9.00
32.08	3.00
32.1	7.00
32.12	5.00
32.14	6.00
32.16	7.00
32.18	6.00
32.2	8.00
32.22	8.00
32.24	12.00
32.26	2.00
32.28	5.00
32.3	12.00
32.32	9.00
32.34	10.00
32.36	12.00
32.38	14.00
32.4	24.00
32.42	21.00
32.44	30.00
32.46	28.00
32.48	23.00
32.5	21.00
32.52	30.00
32.54	18.00
32.56	27.00
32.58	27.00
32.6	31.00
32.62	29.00
32.64	23.00
32.66	32.00
32.68	30.00
32.7	38.00
32.72	26.00
32.74	39.00
32.76	28.00
32.78	33.00
32.8	43.00
32.82	31.00
32.84	40.00
32.86	29.00
32.88	30.00
32.9	28.00
32.92	41.00
32.94	43.00
32.96	36.00
32.98	34.00
33	45.00
33.02	83.00
33.04	256.00
33.06	2928.00
33.08	868.00
33.1	48.00
33.12	26.00
33.14	13.00
33.16	9.00
33.18	8.00
33.2	6.00
33.22	1.00
33.24	5.00
33.26	4.00
33.28	3.00
33.3	8.00
33.32	8.00
33.34	9.00
33.36	4.00
33.38	4.00
33.4	8.00
33.42	8.00
33.44	7.00
33.46	7.00
33.48	4.00
33.5	8.00
33.52	8.00
33.54	5.00
33.56	6.00
33.58	2.00
33.6	5.00
33.62	6.00
33.64	5.00
33.66	5.00
33.68	5.00
33.7	5.00
33.72	6.00
33.74	11.00
33.76	9.00
33.78	4.00
33.8	4.00
33.82	2.00
33.84	5.00
33.86	1.00
33.88	4.00
33.9	5.00
33.92	5.00
33.94	4.00
33.96	5.00
33.98	4.00
34	7.00
34.02	7.00
34.04	5.00
34.06	7.00
34.08	4.00
34.1	5.00
34.12	6.00
34.14	2.00
34.16	5.00
34.18	5.00
34.2	7.00
34.22	3.00
34.24	2.00
34.26	6.00
34.28	4.00
34.3	2.00
34.32	6.00
34.34	7.00
34.36	7.00
34.38	7.00
34.4	7.00
34.42	3.00
34.44	4.00
34.46	7.00
34.48	5.00
34.5	6.00
34.52	6.00
34.54	7.00
34.56	3.00
34.58	1.00
34.6	4.00
34.62	6.00
34.64	7.00
34.66	8.00
34.68	7.00
34.7	10.00
34.72	1.00
34.74	8.00
34.76	4.00
34.78	5.00
34.8	9.00
34.82	6.00
34.84	6.00
34.86	5.00
34.88	6.00
34.9	10.00
34.92	11.00
34.94	10.00
34.96	5.00
34.98	10.00
35	10.00
35.02	2.00
35.04	5.00
35.06	6.00
35.08	9.00
35.1	11.00
35.12	8.00
35.14	7.00
35.16	8.00
35.18	17.00
35.2	6.00
35.22	6.00
35.24	8.00
35.26	7.00
35.28	9.00
35.3	8.00
35.32	7.00
35.34	8.00
35.36	5.00
35.38	10.00
35.4	4.00
35.42	4.00
35.44	7.00
35.46	9.00
35.48	8.00
35.5	9.00
35.52	6.00
35.54	4.00
35.56	7.00
35.58	9.00
35.6	8.00
35.62	9.00
35.64	3.00
35.66	10.00
35.68	12.00
35.7	6.00
35.72	9.00
35.74	12.00
35.76	7.00
35.78	8.00
35.8	7.00
35.82	7.00
35.84	14.00
35.86	9.00
35.88	13.00
35.9	15.00
35.92	12.00
35.94	13.00
35.96	10.00
35.98	6.00
36	13.00
36.02	11.00
36.04	16.00
36.06	13.00
36.08	10.00
36.1	16.00
36.12	11.00
36.14	13.00
36.16	12.00
36.18	10.00
36.2	10.00
36.22	12.00
36.24	15.00
36.26	19.00
36.28	11.00
36.3	21.00
36.32	13.00
36.34	10.00
36.36	17.00
36.38	14.00
36.4	12.00
36.42	13.00
36.44	7.00
36.46	19.00
36.48	12.00
36.5	16.00
36.52	20.00
36.54	15.00
36.56	19.00
36.58	18.00
36.6	15.00
36.62	26.00
36.64	13.00
36.66	25.00
36.68	19.00
36.7	24.00
36.72	27.00
36.74	28.00
36.76	22.00
36.78	29.00
36.8	32.00
36.82	33.00
36.84	26.00
36.86	34.00
36.88	32.00
36.9	31.00
36.92	32.00
36.94	38.00
36.96	41.00
36.98	35.00
37	39.00
37.02	47.00
37.04	32.00
37.06	37.00
37.08	31.00
37.1	54.00
37.12	49.00
37.14	54.00
37.16	43.00
37.18	54.00
37.2	63.00
37.22	68.00
37.24	59.00
37.26	72.00
37.28	77.00
37.3	92.00
37.32	93.00
37.34	92.00
37.36	109.00
37.38	118.00
37.4	125.00
37.42	140.00
37.44	132.00
37.46	148.00
37.48	149.00
37.5	162.00
37.52	184.00
37.54	212.00
37.56	254.00
37.58	273.00
37.6	293.00
37.62	355.00
37.64	342.00
37.66	411.00
37.68	419.00
37.7	488.00
37.72	557.00
37.74	601.00
37.76	711.00
37.78	819.00
37.8	808.00
37.82	940.00
37.84	1074.00
37.86	1153.00
37.88	1250.00
37.9	1383.00
37.92	1512.00
37.94	1693.00
37.96	1787.00
37.98	1924.00
38	1921.00
38.02	1999.00
38.04	2204.00
38.06	2242.00
38.08	2414.00
38.1	2383.00
38.12	2459.00
38.14	2364.00
38.16	2370.00
38.18	2474.00
38.2	2407.00
38.22	2443.00
38.24	2271.00
38.26	2197.00
38.28	2120.00
38.3	2010.00
38.32	1973.00
38.34	1878.00
38.36	1745.00
38.38	1653.00
38.4	1604.00
38.42	1455.00
38.44	1244.00
38.46	1176.00
38.48	1080.00
38.5	1012.00
38.52	978.00
38.54	893.00
38.56	811.00
38.58	723.00
38.6	662.00
38.62	590.00
38.64	572.00
38.66	491.00
38.68	486.00
38.7	407.00
38.72	438.00
38.74	367.00
38.76	328.00
38.78	335.00
38.8	301.00
38.82	275.00
38.84	269.00
38.86	209.00
38.88	254.00
38.9	212.00
38.92	198.00
38.94	191.00
38.96	150.00
38.98	149.00
39	147.00
39.02	148.00
39.04	140.00
39.06	124.00
39.08	114.00
39.1	103.00
39.12	88.00
39.14	93.00
39.16	88.00
39.18	74.00
39.2	54.00
39.22	60.00
39.24	72.00
39.26	46.00
39.28	45.00
39.3	41.00
39.32	64.00
39.34	48.00
39.36	41.00
39.38	39.00
39.4	37.00
39.42	30.00
39.44	34.00
39.46	34.00
39.48	31.00
39.5	22.00
39.52	22.00
39.54	22.00
39.56	19.00
39.58	25.00
39.6	26.00
39.62	30.00
39.64	18.00
39.66	19.00
39.68	16.00
39.7	20.00
39.72	14.00
39.74	13.00
39.76	18.00
39.78	19.00
39.8	13.00
39.82	18.00
39.84	12.00
39.86	21.00
39.88	14.00
39.9	16.00
39.92	11.00
39.94	10.00
39.96	7.00
39.98	9.00
40	8.00
40.02	12.00
40.04	14.00
40.06	12.00
40.08	12.00
40.1	19.00
40.12	6.00
40.14	14.00
40.16	11.00
40.18	12.00
40.2	9.00
40.22	6.00
40.24	11.00
40.26	8.00
40.28	7.00
40.3	7.00
40.32	5.00
40.34	6.00
40.36	5.00
40.38	5.00
40.4	5.00
40.42	10.00
40.44	4.00
40.46	7.00
40.48	6.00
40.5	4.00
40.52	7.00
40.54	10.00
40.56	9.00
40.58	8.00
40.6	6.00
40.62	3.00
40.64	5.00
40.66	4.00
40.68	4.00
40.7	4.00
40.72	7.00
40.74	4.00
40.76	6.00
40.78	6.00
40.8	3.00
40.82	3.00
40.84	5.00
40.86	2.00
40.88	0.00
40.9	4.00
40.92	5.00
40.94	2.00
40.96	4.00
40.98	2.00
41	5.00
