JT6
Wavelength = 1.54059
30	1.00
30.02	0.00
30.04	0.00
30.06	0.00
30.08	0.00
30.1	0.00
30.12	0.00
30.14	0.00
30.16	0.00
30.18	0.00
30.2	0.00
30.22	0.00
30.24	0.00
30.26	0.00
30.28	0.00
30.3	0.00
30.32	0.00
30.34	0.00
30.36	0.00
30.38	0.00
30.4	0.00
30.42	0.00
30.44	0.00
30.46	1.00
30.48	0.00
30.5	0.00
30.52	0.00
30.54	0.00
30.56	0.00
30.58	0.00
30.6	0.00
30.62	0.00
30.64	0.00
30.66	0.00
30.68	0.00
30.7	2.00
30.72	0.00
30.74	0.00
30.76	0.00
30.78	1.00
30.8	0.00
30.82	0.00
30.84	0.00
30.86	0.00
30.88	0.00
30.9	0.00
30.92	1.00
30.94	0.00
30.96	0.00
30.98	0.00
31	1.00
31.02	0.00
31.04	0.00
31.06	0.00
31.08	1.00
31.1	0.00
31.12	0.00
31.14	0.00
31.16	0.00
31.18	0.00
31.2	0.00
31.22	0.00
31.24	1.00
31.26	0.00
31.28	0.00
31.3	1.00
31.32	1.00
31.34	0.00
31.36	0.00
31.38	0.00
31.4	0.00
31.42	0.00
31.44	0.00
31.46	0.00
31.48	0.00
31.5	0.00
31.52	0.00
31.54	0.00
31.56	1.00
31.58	0.00
31.6	0.00
31.62	1.00
31.64	0.00
31.66	0.00
31.68	0.00
31.7	0.00
31.72	0.00
31.74	0.00
31.76	0.00
31.78	0.00
31.8	0.00
31.82	0.00
31.84	0.00
31.86	0.00
31.88	0.00
31.9	0.00
31.92	0.00
31.94	0.00
31.96	0.00
31.98	0.00
32	0.00
32.02	0.00
32.04	0.00
32.06	0.00
32.08	1.00
32.1	1.00
32.12	0.00
32.14	1.00
32.16	0.00
32.18	0.00
32.2	0.00
32.22	1.00
32.24	0.00
32.26	0.00
32.28	0.00
32.3	0.00
32.32	0.00
32.34	0.00
32.36	0.00
32.38	0.00
32.4	0.00
32.42	0.00
32.44	0.00
32.46	0.00
32.48	0.00
32.5	0.00
32.52	0.00
32.54	0.00
32.56	0.00
32.58	0.00
32.6	0.00
32.62	0.00
32.64	0.00
32.66	0.00
32.68	0.00
32.7	0.00
32.72	0.00
32.74	0.00
32.76	0.00
32.78	0.00
32.8	0.00
32.82	0.00
32.84	0.00
32.86	0.00
32.88	0.00
32.9	1.00
32.92	0.00
32.94	0.00
32.96	2.00
32.98	0.00
33	0.00
33.02	0.00
33.04	0.00
33.06	0.00
33.08	1.00
33.1	0.00
33.12	0.00
33.14	0.00
33.16	0.00
33.18	0.00
33.2	0.00
33.22	0.00
33.24	0.00
33.26	0.00
33.28	0.00
33.3	0.00
33.32	0.00
33.34	0.00
33.36	0.00
33.38	0.00
33.4	0.00
33.42	0.00
33.44	0.00
33.46	0.00
33.48	0.00
33.5	0.00
33.52	1.00
33.54	0.00
33.56	0.00
33.58	0.00
33.6	1.00
33.62	1.00
33.64	0.00
33.66	0.00
33.68	0.00
33.7	0.00
33.72	0.00
33.74	0.00
33.76	0.00
33.78	0.00
33.8	0.00
33.82	0.00
33.84	0.00
33.86	1.00
33.88	0.00
33.9	0.00
33.92	2.00
33.94	0.00
33.96	2.00
33.98	0.00
34	0.00
34.02	1.00
34.04	1.00
34.06	1.00
34.08	0.00
34.1	0.00
34.12	0.00
34.14	0.00
34.16	1.00
34.18	0.00
34.2	0.00
34.22	0.00
34.24	2.00
34.26	0.00
34.28	0.00
34.3	0.00
34.32	0.00
34.34	0.00
34.36	0.00
34.38	0.00
34.4	0.00
34.42	0.00
34.44	0.00
34.46	0.00
34.48	0.00
34.5	0.00
34.52	0.00
34.54	0.00
34.56	0.00
34.58	0.00
34.6	0.00
34.62	0.00
34.64	1.00
34.66	0.00
34.68	0.00
34.7	0.00
34.72	1.00
34.74	0.00
34.76	1.00
34.78	0.00
34.8	0.00
34.82	1.00
34.84	0.00
34.86	0.00
34.88	0.00
34.9	1.00
34.92	0.00
34.94	0.00
34.96	0.00
34.98	0.00
35	0.00
35.02	2.00
35.04	0.00
35.06	0.00
35.08	0.00
35.1	0.00
35.12	0.00
35.14	0.00
35.16	0.00
35.18	0.00
35.2	0.00
35.22	0.00
35.24	0.00
35.26	0.00
35.28	1.00
35.3	0.00
35.32	0.00
35.34	0.00
35.36	0.00
35.38	0.00
35.4	1.00
35.42	0.00
35.44	0.00
35.46	0.00
35.48	1.00
35.5	0.00
35.52	0.00
35.54	0.00
35.56	0.00
35.58	0.00
35.6	0.00
35.62	1.00
35.64	0.00
35.66	0.00
35.68	0.00
35.7	0.00
35.72	1.00
35.74	2.00
35.76	0.00
35.78	0.00
35.8	0.00
35.82	1.00
35.84	0.00
35.86	0.00
35.88	0.00
35.9	0.00
35.92	1.00
35.94	0.00
35.96	0.00
35.98	0.00
36	2.00
36.02	0.00
36.04	0.00
36.06	0.00
36.08	0.00
36.1	0.00
36.12	0.00
36.14	0.00
36.16	0.00
36.18	0.00
36.2	1.00
36.22	1.00
36.24	0.00
36.26	0.00
36.28	1.00
36.3	2.00
36.32	1.00
36.34	0.00
36.36	1.00
36.38	0.00
36.4	0.00
36.42	1.00
36.44	1.00
36.46	0.00
36.48	1.00
36.5	0.00
36.52	1.00
36.54	2.00
36.56	2.00
36.58	1.00
36.6	1.00
36.62	0.00
36.64	0.00
36.66	0.00
36.68	3.00
36.7	0.00
36.72	0.00
36.74	1.00
36.76	0.00
36.78	1.00
36.8	0.00
36.82	1.00
36.84	1.00
36.86	0.00
36.88	0.00
36.9	0.00
36.92	0.00
36.94	0.00
36.96	2.00
36.98	0.00
37	0.00
37.02	2.00
37.04	3.00
37.06	0.00
37.08	2.00
37.1	0.00
37.12	2.00
37.14	3.00
37.16	1.00
37.18	2.00
37.2	1.00
37.22	3.00
37.24	4.00
37.26	1.00
37.28	0.00
37.3	0.00
37.32	0.00
37.34	3.00
37.36	0.00
37.38	3.00
37.4	4.00
37.42	3.00
37.44	5.00
37.46	6.00
37.48	3.00
37.5	4.00
37.52	5.00
37.54	7.00
37.56	10.00
37.58	7.00
37.6	5.00
37.62	10.00
37.64	13.00
37.66	7.00
37.68	6.00
37.7	10.00
37.72	14.00
37.74	18.00
37.76	22.00
37.78	16.00
37.8	21.00
37.82	29.00
37.84	23.00
37.86	26.00
37.88	19.00
37.9	28.00
37.92	39.00
37.94	39.00
37.96	43.00
37.98	56.00
38	48.00
38.02	72.00
38.04	80.00
38.06	88.00
38.08	72.00
38.1	98.00
38.12	103.00
38.14	115.00
38.16	120.00
38.18	136.00
38.2	127.00
38.22	123.00
38.24	103.00
38.26	125.00
38.28	135.00
38.3	134.00
38.32	129.00
38.34	119.00
38.36	124.00
38.38	114.00
38.4	104.00
38.42	95.00
38.44	84.00
38.46	89.00
38.48	68.00
38.5	69.00
38.52	60.00
38.54	49.00
38.56	31.00
38.58	33.00
38.6	39.00
38.62	34.00
38.64	35.00
38.66	36.00
38.68	26.00
38.7	25.00
38.72	24.00
38.74	23.00
38.76	21.00
38.78	16.00
38.8	16.00
38.82	11.00
38.84	8.00
38.86	11.00
38.88	11.00
38.9	15.00
38.92	6.00
38.94	8.00
38.96	4.00
38.98	7.00
39	3.00
39.02	9.00
39.04	4.00
39.06	2.00
39.08	4.00
39.1	5.00
39.12	2.00
39.14	2.00
39.16	3.00
39.18	3.00
39.2	3.00
39.22	1.00
39.24	3.00
39.26	2.00
39.28	3.00
39.3	4.00
39.32	2.00
39.34	6.00
39.36	1.00
39.38	1.00
39.4	1.00
39.42	2.00
39.44	6.00
39.46	0.00
39.48	1.00
39.5	0.00
39.52	1.00
39.54	4.00
39.56	1.00
39.58	0.00
39.6	2.00
39.62	1.00
39.64	2.00
39.66	0.00
39.68	0.00
39.7	0.00
39.72	1.00
39.74	0.00
39.76	0.00
39.78	3.00
39.8	0.00
39.82	0.00
39.84	0.00
39.86	0.00
39.88	0.00
39.9	1.00
39.92	0.00
39.94	0.00
39.96	0.00
39.98	1.00
40	0.00
40.02	1.00
40.04	0.00
40.06	0.00
40.08	0.00
40.1	0.00
40.12	0.00
40.14	1.00
40.16	0.00
40.18	0.00
40.2	0.00
40.22	0.00
40.24	0.00
40.26	1.00
40.28	0.00
40.3	0.00
40.32	0.00
40.34	0.00
40.36	0.00
40.38	0.00
40.4	0.00
40.42	0.00
40.44	1.00
40.46	2.00
40.48	0.00
40.5	0.00
40.52	0.00
40.54	0.00
40.56	0.00
40.58	0.00
40.6	0.00
40.62	0.00
40.64	0.00
40.66	0.00
40.68	0.00
40.7	0.00
40.72	0.00
40.74	0.00
40.76	1.00
40.78	0.00
40.8	0.00
40.82	0.00
40.84	0.00
40.86	1.00
40.88	0.00
40.9	0.00
40.92	0.00
40.94	0.00
40.96	0.00
40.98	0.00
41	0.00
41.02	0.00
41.04	0.00
41.06	0.00
41.08	0.00
41.1	0.00
41.12	0.00
41.14	0.00
41.16	0.00
41.18	0.00
41.2	0.00
41.22	0.00
41.24	0.00
41.26	1.00
41.28	0.00
41.3	0.00
41.32	0.00
41.34	0.00
41.36	0.00
41.38	0.00
41.4	0.00
41.42	0.00
41.44	0.00
41.46	0.00
41.48	0.00
41.5	1.00
41.52	0.00
41.54	0.00
41.56	1.00
41.58	1.00
41.6	0.00
41.62	0.00
41.64	0.00
41.66	1.00
41.68	0.00
41.7	0.00
41.72	1.00
41.74	0.00
41.76	0.00
41.78	0.00
41.8	0.00
41.82	0.00
41.84	0.00
41.86	0.00
41.88	0.00
41.9	0.00
41.92	0.00
41.94	1.00
41.96	1.00
41.98	0.00
42	0.00
42.02	0.00
42.04	0.00
42.06	1.00
42.08	0.00
42.1	0.00
42.12	0.00
42.14	0.00
42.16	0.00
42.18	0.00
42.2	1.00
42.22	0.00
42.24	0.00
42.26	1.00
42.28	0.00
42.3	1.00
42.32	0.00
42.34	1.00
42.36	0.00
42.38	0.00
42.4	0.00
42.42	0.00
42.44	0.00
42.46	0.00
42.48	0.00
42.5	0.00
42.52	0.00
42.54	0.00
42.56	0.00
42.58	0.00
42.6	0.00
42.62	0.00
42.64	1.00
42.66	0.00
42.68	0.00
42.7	0.00
42.72	0.00
42.74	0.00
42.76	0.00
42.78	0.00
42.8	0.00
42.82	0.00
42.84	0.00
42.86	0.00
42.88	0.00
42.9	0.00
42.92	0.00
42.94	0.00
42.96	0.00
42.98	1.00
43	0.00
43.02	0.00
43.04	0.00
43.06	0.00
43.08	0.00
43.1	0.00
43.12	0.00
43.14	0.00
43.16	0.00
43.18	0.00
43.2	0.00
43.22	0.00
43.24	0.00
43.26	0.00
43.28	2.00
43.3	0.00
43.32	0.00
43.34	0.00
43.36	0.00
43.38	0.00
43.4	0.00
43.42	0.00
43.44	0.00
43.46	0.00
43.48	0.00
43.5	1.00
43.52	0.00
43.54	0.00
43.56	0.00
43.58	0.00
43.6	0.00
43.62	0.00
43.64	0.00
43.66	0.00
43.68	0.00
43.7	0.00
43.72	0.00
43.74	1.00
43.76	0.00
43.78	0.00
43.8	0.00
43.82	1.00
43.84	1.00
43.86	0.00
43.88	0.00
43.9	1.00
43.92	0.00
43.94	0.00
43.96	0.00
43.98	0.00
44	0.00
44.02	0.00
44.04	0.00
44.06	0.00
44.08	0.00
44.1	0.00
44.12	0.00
44.14	0.00
44.16	1.00
44.18	0.00
44.2	0.00
44.22	0.00
44.24	1.00
44.26	0.00
44.28	0.00
44.3	0.00
44.32	0.00
44.34	0.00
44.36	0.00
44.38	0.00
44.4	0.00
44.42	0.00
44.44	0.00
44.46	0.00
44.48	0.00
44.5	0.00
44.52	0.00
44.54	0.00
44.56	0.00
44.58	2.00
44.6	0.00
44.62	0.00
44.64	0.00
44.66	0.00
44.68	0.00
44.7	0.00
44.72	1.00
44.74	0.00
44.76	1.00
44.78	0.00
44.8	0.00
44.82	0.00
44.84	0.00
44.86	0.00
44.88	2.00
44.9	0.00
44.92	0.00
44.94	0.00
44.96	1.00
44.98	0.00
45	0.00
45.02	1.00
45.04	0.00
45.06	0.00
45.08	0.00
45.1	0.00
45.12	0.00
45.14	0.00
45.16	0.00
45.18	0.00
45.2	0.00
45.22	0.00
45.24	0.00
45.26	0.00
45.28	0.00
45.3	0.00
45.32	0.00
45.34	0.00
45.36	1.00
45.38	1.00
45.4	0.00
45.42	0.00
45.44	0.00
45.46	0.00
45.48	0.00
45.5	0.00
45.52	0.00
45.54	0.00
45.56	0.00
45.58	1.00
45.6	0.00
45.62	0.00
45.64	0.00
45.66	0.00
45.68	1.00
45.7	0.00
45.72	0.00
45.74	1.00
45.76	0.00
45.78	0.00
45.8	0.00
45.82	1.00
45.84	0.00
45.86	0.00
45.88	0.00
45.9	0.00
45.92	1.00
45.94	0.00
45.96	0.00
45.98	0.00
46	1.00
46.02	0.00
46.04	0.00
46.06	0.00
46.08	1.00
46.1	0.00
46.12	0.00
46.14	0.00
46.16	0.00
46.18	0.00
46.2	0.00
46.22	0.00
46.24	0.00
46.26	1.00
46.28	0.00
46.3	0.00
46.32	0.00
46.34	0.00
46.36	0.00
46.38	0.00
46.4	0.00
46.42	0.00
46.44	0.00
46.46	0.00
46.48	0.00
46.5	0.00
46.52	0.00
46.54	0.00
46.56	1.00
46.58	1.00
46.6	1.00
46.62	0.00
46.64	0.00
46.66	0.00
46.68	0.00
46.7	0.00
46.72	0.00
46.74	0.00
46.76	0.00
46.78	0.00
46.8	0.00
46.82	0.00
46.84	0.00
46.86	1.00
46.88	1.00
46.9	1.00
46.92	0.00
46.94	0.00
46.96	0.00
46.98	0.00
47	0.00
47.02	0.00
47.04	0.00
47.06	0.00
47.08	0.00
47.1	0.00
47.12	0.00
47.14	1.00
47.16	1.00
47.18	0.00
47.2	0.00
47.22	0.00
47.24	0.00
47.26	0.00
47.28	0.00
47.3	0.00
47.32	0.00
47.34	0.00
47.36	0.00
47.38	0.00
47.4	0.00
47.42	0.00
47.44	0.00
47.46	0.00
47.48	0.00
47.5	0.00
47.52	0.00
47.54	1.00
47.56	0.00
47.58	0.00
47.6	0.00
47.62	0.00
47.64	1.00
47.66	0.00
47.68	1.00
47.7	0.00
47.72	0.00
47.74	0.00
47.76	0.00
47.78	0.00
47.8	0.00
47.82	0.00
47.84	0.00
47.86	0.00
47.88	0.00
47.9	0.00
47.92	0.00
47.94	0.00
47.96	0.00
47.98	0.00
48	0.00
48.02	0.00
48.04	0.00
48.06	1.00
48.08	0.00
48.1	0.00
48.12	0.00
48.14	0.00
48.16	0.00
48.18	0.00
48.2	0.00
48.22	0.00
48.24	0.00
48.26	0.00
48.28	0.00
48.3	0.00
48.32	0.00
48.34	0.00
48.36	0.00
48.38	0.00
48.4	1.00
48.42	0.00
48.44	0.00
48.46	0.00
48.48	0.00
48.5	0.00
48.52	0.00
48.54	0.00
48.56	0.00
48.58	0.00
48.6	0.00
48.62	0.00
48.64	0.00
48.66	0.00
48.68	0.00
48.7	1.00
48.72	0.00
48.74	0.00
48.76	0.00
48.78	0.00
48.8	0.00
48.82	0.00
48.84	0.00
48.86	0.00
48.88	0.00
48.9	0.00
48.92	0.00
48.94	0.00
48.96	0.00
48.98	0.00
49	0.00
49.02	0.00
49.04	1.00
49.06	0.00
49.08	0.00
49.1	0.00
49.12	0.00
49.14	1.00
49.16	0.00
49.18	0.00
49.2	0.00
49.22	0.00
49.24	0.00
49.26	0.00
49.28	0.00
49.3	0.00
49.32	0.00
49.34	0.00
49.36	0.00
49.38	0.00
49.4	0.00
49.42	1.00
49.44	0.00
49.46	0.00
49.48	0.00
49.5	0.00
49.52	0.00
49.54	0.00
49.56	0.00
49.58	0.00
49.6	0.00
49.62	0.00
49.64	0.00
49.66	0.00
49.68	0.00
49.7	0.00
49.72	0.00
49.74	0.00
49.76	0.00
49.78	0.00
49.8	0.00
49.82	0.00
49.84	1.00
49.86	0.00
49.88	0.00
49.9	0.00
49.92	0.00
49.94	0.00
49.96	0.00
49.98	0.00
50	0.00
50.02	1.00
50.04	0.00
50.06	1.00
50.08	1.00
50.1	0.00
50.12	0.00
50.14	0.00
50.16	0.00
50.18	0.00
50.2	0.00
50.22	0.00
50.24	0.00
50.26	0.00
50.28	0.00
50.3	0.00
50.32	0.00
50.34	0.00
50.36	0.00
50.38	0.00
50.4	0.00
50.42	0.00
50.44	0.00
50.46	0.00
50.48	0.00
50.5	0.00
50.52	0.00
50.54	0.00
50.56	0.00
50.58	0.00
50.6	0.00
50.62	0.00
50.64	0.00
50.66	0.00
50.68	0.00
50.7	0.00
50.72	0.00
50.74	0.00
50.76	0.00
50.78	0.00
50.8	0.00
50.82	0.00
50.84	0.00
50.86	0.00
50.88	0.00
50.9	0.00
50.92	0.00
50.94	0.00
50.96	0.00
50.98	0.00
51	0.00
51.02	0.00
51.04	0.00
51.06	0.00
51.08	0.00
51.1	0.00
51.12	0.00
51.14	0.00
51.16	0.00
51.18	0.00
51.2	0.00
51.22	0.00
51.24	0.00
51.26	0.00
51.28	0.00
51.3	0.00
51.32	0.00
51.34	0.00
51.36	0.00
51.38	0.00
51.4	2.00
51.42	0.00
51.44	0.00
51.46	0.00
51.48	0.00
51.5	0.00
51.52	0.00
51.54	0.00
51.56	0.00
51.58	0.00
51.6	1.00
51.62	0.00
51.64	0.00
51.66	0.00
51.68	0.00
51.7	0.00
51.72	0.00
51.74	0.00
51.76	0.00
51.78	1.00
51.8	0.00
51.82	0.00
51.84	0.00
51.86	0.00
51.88	0.00
51.9	0.00
51.92	0.00
51.94	0.00
51.96	0.00
51.98	1.00
52	0.00
52.02	0.00
52.04	0.00
52.06	1.00
52.08	0.00
52.1	0.00
52.12	0.00
52.14	0.00
52.16	0.00
52.18	0.00
52.2	0.00
52.22	0.00
52.24	0.00
52.26	1.00
52.28	0.00
52.3	0.00
52.32	0.00
52.34	0.00
52.36	0.00
52.38	0.00
52.4	0.00
52.42	0.00
52.44	2.00
52.46	0.00
52.48	0.00
52.5	0.00
52.52	0.00
52.54	0.00
52.56	1.00
52.58	0.00
52.6	0.00
52.62	0.00
52.64	0.00
52.66	0.00
52.68	0.00
52.7	0.00
52.72	1.00
52.74	0.00
52.76	0.00
52.78	0.00
52.8	0.00
52.82	0.00
52.84	0.00
52.86	1.00
52.88	0.00
52.9	1.00
52.92	0.00
52.94	0.00
52.96	0.00
52.98	1.00
53	0.00
53.02	0.00
53.04	0.00
53.06	0.00
53.08	0.00
53.1	0.00
53.12	0.00
53.14	0.00
53.16	0.00
53.18	0.00
53.2	0.00
53.22	0.00
53.24	0.00
53.26	0.00
53.28	0.00
53.3	0.00
53.32	1.00
53.34	0.00
53.36	0.00
53.38	0.00
53.4	0.00
53.42	0.00
53.44	0.00
53.46	0.00
53.48	0.00
53.5	0.00
53.52	0.00
53.54	0.00
53.56	0.00
53.58	0.00
53.6	1.00
53.62	0.00
53.64	0.00
53.66	0.00
53.68	0.00
53.7	0.00
53.72	0.00
53.74	0.00
53.76	0.00
53.78	0.00
53.8	0.00
53.82	0.00
53.84	0.00
53.86	1.00
53.88	0.00
53.9	0.00
53.92	1.00
53.94	0.00
53.96	0.00
53.98	0.00
54	0.00
54.02	0.00
54.04	0.00
54.06	0.00
54.08	0.00
54.1	0.00
54.12	0.00
54.14	0.00
54.16	0.00
54.18	0.00
54.2	0.00
54.22	0.00
54.24	0.00
54.26	0.00
54.28	0.00
54.3	0.00
54.32	0.00
54.34	0.00
54.36	0.00
54.38	0.00
54.4	0.00
54.42	0.00
54.44	0.00
54.46	0.00
54.48	0.00
54.5	0.00
54.52	0.00
54.54	0.00
54.56	0.00
54.58	1.00
54.6	0.00
54.62	0.00
54.64	0.00
54.66	0.00
54.68	0.00
54.7	0.00
54.72	0.00
54.74	0.00
54.76	0.00
54.78	0.00
54.8	0.00
54.82	0.00
54.84	0.00
54.86	0.00
54.88	1.00
54.9	0.00
54.92	1.00
54.94	0.00
54.96	0.00
54.98	0.00
55	0.00
55.02	0.00
55.04	0.00
55.06	0.00
55.08	0.00
55.1	1.00
55.12	0.00
55.14	0.00
55.16	0.00
55.18	0.00
55.2	0.00
55.22	0.00
55.24	0.00
55.26	0.00
55.28	0.00
55.3	0.00
55.32	0.00
55.34	0.00
55.36	0.00
55.38	0.00
55.4	1.00
55.42	0.00
55.44	0.00
55.46	0.00
55.48	0.00
55.5	0.00
55.52	0.00
55.54	0.00
55.56	0.00
55.58	0.00
55.6	0.00
55.62	0.00
55.64	0.00
55.66	0.00
55.68	0.00
55.7	0.00
55.72	1.00
55.74	0.00
55.76	1.00
55.78	0.00
55.8	0.00
55.82	0.00
55.84	0.00
55.86	0.00
55.88	0.00
55.9	1.00
55.92	0.00
55.94	0.00
55.96	1.00
55.98	0.00
56	0.00
56.02	0.00
56.04	0.00
56.06	0.00
56.08	0.00
56.1	0.00
56.12	0.00
56.14	0.00
56.16	0.00
56.18	0.00
56.2	0.00
56.22	0.00
56.24	0.00
56.26	1.00
56.28	0.00
56.3	0.00
56.32	0.00
56.34	0.00
56.36	1.00
56.38	0.00
56.4	1.00
56.42	0.00
56.44	0.00
56.46	0.00
56.48	0.00
56.5	0.00
56.52	0.00
56.54	0.00
56.56	1.00
56.58	0.00
56.6	0.00
56.62	0.00
56.64	0.00
56.66	0.00
56.68	0.00
56.7	0.00
56.72	0.00
56.74	0.00
56.76	0.00
56.78	0.00
56.8	0.00
56.82	1.00
56.84	0.00
56.86	0.00
56.88	0.00
56.9	0.00
56.92	1.00
56.94	1.00
56.96	0.00
56.98	0.00
57	0.00
57.02	1.00
57.04	0.00
57.06	0.00
57.08	0.00
57.1	0.00
57.12	0.00
57.14	1.00
57.16	0.00
57.18	1.00
57.2	1.00
57.22	0.00
57.24	0.00
57.26	0.00
57.28	0.00
57.3	1.00
57.32	2.00
57.34	0.00
57.36	0.00
57.38	0.00
57.4	0.00
57.42	0.00
57.44	0.00
57.46	0.00
57.48	0.00
57.5	0.00
57.52	0.00
57.54	0.00
57.56	0.00
57.58	0.00
57.6	0.00
57.62	0.00
57.64	0.00
57.66	0.00
57.68	0.00
57.7	0.00
57.72	0.00
57.74	0.00
57.76	0.00
57.78	1.00
57.8	1.00
57.82	0.00
57.84	1.00
57.86	0.00
57.88	0.00
57.9	0.00
57.92	0.00
57.94	0.00
57.96	0.00
57.98	0.00
58	0.00
58.02	0.00
58.04	0.00
58.06	0.00
58.08	0.00
58.1	0.00
58.12	0.00
58.14	0.00
58.16	0.00
58.18	0.00
58.2	0.00
58.22	0.00
58.24	0.00
58.26	0.00
58.28	1.00
58.3	0.00
58.32	0.00
58.34	0.00
58.36	0.00
58.38	0.00
58.4	0.00
58.42	0.00
58.44	0.00
58.46	0.00
58.48	0.00
58.5	0.00
58.52	0.00
58.54	1.00
58.56	0.00
58.58	0.00
58.6	0.00
58.62	1.00
58.64	1.00
58.66	0.00
58.68	1.00
58.7	1.00
58.72	0.00
58.74	0.00
58.76	0.00
58.78	0.00
58.8	0.00
58.82	0.00
58.84	0.00
58.86	0.00
58.88	0.00
58.9	1.00
58.92	0.00
58.94	0.00
58.96	0.00
58.98	0.00
59	0.00
59.02	1.00
59.04	0.00
59.06	0.00
59.08	0.00
59.1	0.00
59.12	0.00
59.14	0.00
59.16	0.00
59.18	0.00
59.2	0.00
59.22	2.00
59.24	0.00
59.26	1.00
59.28	0.00
59.3	0.00
59.32	0.00
59.34	0.00
59.36	0.00
59.38	0.00
59.4	0.00
59.42	0.00
59.44	0.00
59.46	0.00
59.48	2.00
59.5	0.00
59.52	0.00
59.54	0.00
59.56	0.00
59.58	0.00
59.6	1.00
59.62	0.00
59.64	0.00
59.66	0.00
59.68	0.00
59.7	0.00
59.72	0.00
59.74	0.00
59.76	0.00
59.78	0.00
59.8	0.00
59.82	0.00
59.84	0.00
59.86	0.00
59.88	1.00
59.9	1.00
59.92	0.00
59.94	0.00
59.96	0.00
59.98	0.00
60	0.00
60.02	0.00
60.04	0.00
60.06	0.00
60.08	1.00
60.1	0.00
60.12	0.00
60.14	0.00
60.16	0.00
60.18	0.00
60.2	0.00
60.22	1.00
60.24	0.00
60.26	0.00
60.28	0.00
60.3	0.00
60.32	0.00
60.34	0.00
60.36	0.00
60.38	0.00
60.4	0.00
60.42	0.00
60.44	1.00
60.46	0.00
60.48	0.00
60.5	1.00
60.52	0.00
60.54	0.00
60.56	0.00
60.58	0.00
60.6	0.00
60.62	0.00
60.64	1.00
60.66	0.00
60.68	0.00
60.7	0.00
60.72	0.00
60.74	0.00
60.76	0.00
60.78	0.00
60.8	0.00
60.82	0.00
60.84	0.00
60.86	0.00
60.88	0.00
60.9	0.00
60.92	0.00
60.94	0.00
60.96	0.00
60.98	0.00
61	3.00
61.02	0.00
61.04	0.00
61.06	0.00
61.08	0.00
61.1	0.00
61.12	0.00
61.14	0.00
61.16	0.00
61.18	0.00
61.2	1.00
61.22	0.00
61.24	0.00
61.26	0.00
61.28	1.00
61.3	0.00
61.32	0.00
61.34	0.00
61.36	1.00
61.38	0.00
61.4	1.00
61.42	0.00
61.44	0.00
61.46	0.00
61.48	0.00
61.5	0.00
61.52	0.00
61.54	1.00
61.56	1.00
61.58	0.00
61.6	2.00
61.62	1.00
61.64	0.00
61.66	0.00
61.68	0.00
61.7	1.00
61.72	0.00
61.74	0.00
61.76	0.00
61.78	0.00
61.8	0.00
61.82	0.00
61.84	0.00
61.86	0.00
61.88	0.00
61.9	0.00
61.92	0.00
61.94	0.00
61.96	0.00
61.98	0.00
62	0.00
62.02	0.00
62.04	0.00
62.06	1.00
62.08	1.00
62.1	1.00
62.12	0.00
62.14	0.00
62.16	0.00
62.18	0.00
62.2	0.00
62.22	0.00
62.24	0.00
62.26	0.00
62.28	1.00
62.3	0.00
62.32	0.00
62.34	0.00
62.36	0.00
62.38	0.00
62.4	0.00
62.42	0.00
62.44	0.00
62.46	0.00
62.48	0.00
62.5	0.00
62.52	0.00
62.54	0.00
62.56	0.00
62.58	0.00
62.6	0.00
62.62	0.00
62.64	0.00
62.66	0.00
62.68	1.00
62.7	0.00
62.72	0.00
62.74	0.00
62.76	0.00
62.78	0.00
62.8	0.00
62.82	0.00
62.84	0.00
62.86	0.00
62.88	0.00
62.9	0.00
62.92	0.00
62.94	0.00
62.96	1.00
62.98	1.00
63	0.00
63.02	0.00
63.04	1.00
63.06	1.00
63.08	1.00
63.1	0.00
63.12	0.00
63.14	0.00
63.16	0.00
63.18	0.00
63.2	0.00
63.22	0.00
63.24	0.00
63.26	1.00
63.28	1.00
63.3	0.00
63.32	0.00
63.34	0.00
63.36	0.00
63.38	0.00
63.4	0.00
63.42	0.00
63.44	0.00
63.46	1.00
63.48	0.00
63.5	0.00
63.52	2.00
63.54	0.00
63.56	0.00
63.58	0.00
63.6	2.00
63.62	1.00
63.64	0.00
63.66	0.00
63.68	0.00
63.7	0.00
63.72	0.00
63.74	0.00
63.76	2.00
63.78	1.00
63.8	0.00
63.82	0.00
63.84	0.00
63.86	1.00
63.88	0.00
63.9	0.00
63.92	1.00
63.94	1.00
63.96	1.00
63.98	0.00
64	0.00
64.02	0.00
64.04	0.00
64.06	0.00
64.08	1.00
64.1	0.00
64.12	0.00
64.14	0.00
64.16	0.00
64.18	0.00
64.2	0.00
64.22	0.00
64.24	2.00
64.26	1.00
64.28	1.00
64.3	0.00
64.32	1.00
64.34	0.00
64.36	0.00
64.38	0.00
64.4	0.00
64.42	0.00
64.44	0.00
64.46	0.00
64.48	0.00
64.5	0.00
64.52	2.00
64.54	0.00
64.56	0.00
64.58	1.00
64.6	0.00
64.62	0.00
64.64	0.00
64.66	0.00
64.68	1.00
64.7	0.00
64.72	0.00
64.74	1.00
64.76	1.00
64.78	0.00
64.8	0.00
64.82	1.00
64.84	0.00
64.86	1.00
64.88	1.00
64.9	2.00
64.92	0.00
64.94	0.00
64.96	0.00
64.98	1.00
65	1.00
65.02	0.00
65.04	0.00
65.06	0.00
65.08	0.00
65.1	1.00
65.12	0.00
65.14	1.00
65.16	0.00
65.18	2.00
65.2	0.00
65.22	0.00
65.24	0.00
65.26	2.00
65.28	0.00
65.3	0.00
65.32	1.00
65.34	0.00
65.36	0.00
65.38	1.00
65.4	2.00
65.42	0.00
65.44	1.00
65.46	1.00
65.48	0.00
65.5	1.00
65.52	2.00
65.54	0.00
65.56	1.00
65.58	1.00
65.6	0.00
65.62	1.00
65.64	0.00
65.66	0.00
65.68	0.00
65.7	0.00
65.72	0.00
65.74	1.00
65.76	0.00
65.78	1.00
65.8	0.00
65.82	0.00
65.84	1.00
65.86	0.00
65.88	0.00
65.9	1.00
65.92	1.00
65.94	0.00
65.96	0.00
65.98	1.00
66	0.00
66.02	0.00
66.04	0.00
66.06	0.00
66.08	0.00
66.1	3.00
66.12	1.00
66.14	0.00
66.16	0.00
66.18	0.00
66.2	1.00
66.22	0.00
66.24	0.00
66.26	1.00
66.28	1.00
66.3	0.00
66.32	0.00
66.34	1.00
66.36	2.00
66.38	0.00
66.4	0.00
66.42	2.00
66.44	0.00
66.46	3.00
66.48	1.00
66.5	0.00
66.52	1.00
66.54	2.00
66.56	1.00
66.58	1.00
66.6	1.00
66.62	0.00
66.64	0.00
66.66	0.00
66.68	2.00
66.7	1.00
66.72	1.00
66.74	0.00
66.76	0.00
66.78	0.00
66.8	1.00
66.82	2.00
66.84	0.00
66.86	1.00
66.88	1.00
66.9	2.00
66.92	2.00
66.94	3.00
66.96	1.00
66.98	1.00
67	1.00
67.02	1.00
67.04	1.00
67.06	0.00
67.08	1.00
67.1	2.00
67.12	2.00
67.14	2.00
67.16	2.00
67.18	1.00
67.2	2.00
67.22	0.00
67.24	1.00
67.26	3.00
67.28	2.00
67.3	3.00
67.32	3.00
67.34	1.00
67.36	2.00
67.38	1.00
67.4	1.00
67.42	0.00
67.44	0.00
67.46	0.00
67.48	1.00
67.5	2.00
67.52	0.00
67.54	3.00
67.56	3.00
67.58	1.00
67.6	1.00
67.62	2.00
67.64	1.00
67.66	1.00
67.68	3.00
67.7	2.00
67.72	4.00
67.74	2.00
67.76	3.00
67.78	0.00
67.8	4.00
67.82	3.00
67.84	2.00
67.86	3.00
67.88	3.00
67.9	3.00
67.92	3.00
67.94	4.00
67.96	1.00
67.98	2.00
68	2.00
68.02	1.00
68.04	2.00
68.06	4.00
68.08	6.00
68.1	2.00
68.12	3.00
68.14	3.00
68.16	4.00
68.18	2.00
68.2	7.00
68.22	4.00
68.24	5.00
68.26	3.00
68.28	1.00
68.3	2.00
68.32	2.00
68.34	3.00
68.36	1.00
68.38	7.00
68.4	4.00
68.42	5.00
68.44	3.00
68.46	8.00
68.48	6.00
68.5	10.00
68.52	6.00
68.54	6.00
68.56	11.00
68.58	8.00
68.6	4.00
68.62	12.00
68.64	6.00
68.66	12.00
68.68	8.00
68.7	16.00
68.72	13.00
68.74	10.00
68.76	17.00
68.78	11.00
68.8	18.00
68.82	18.00
68.84	25.00
68.86	24.00
68.88	24.00
68.9	51.00
68.92	130.00
68.94	491.00
68.96	1058.00
68.98	1266.00
69	2152.00
69.02	754.00
69.04	144.00
69.06	123.00
69.08	113.00
69.1	101.00
69.12	92.00
69.14	87.00
69.16	93.00
69.18	66.00
69.2	49.00
69.22	59.00
69.24	55.00
69.26	44.00
69.28	37.00
69.3	35.00
69.32	24.00
69.34	24.00
69.36	24.00
69.38	22.00
69.4	14.00
69.42	15.00
69.44	15.00
69.46	18.00
69.48	15.00
69.5	19.00
69.52	13.00
69.54	12.00
69.56	13.00
69.58	7.00
69.6	11.00
69.62	11.00
69.64	11.00
69.66	5.00
69.68	7.00
69.7	9.00
69.72	4.00
69.74	7.00
69.76	4.00
69.78	5.00
69.8	5.00
69.82	8.00
69.84	4.00
69.86	3.00
69.88	3.00
69.9	1.00
69.92	1.00
69.94	1.00
69.96	4.00
69.98	7.00
70	3.00
70.02	2.00
70.04	2.00
70.06	3.00
70.08	1.00
70.1	3.00
70.12	3.00
70.14	2.00
70.16	1.00
70.18	6.00
70.2	7.00
70.22	1.00
70.24	2.00
70.26	2.00
70.28	3.00
70.3	1.00
70.32	6.00
70.34	1.00
70.36	7.00
70.38	3.00
70.4	5.00
70.42	3.00
70.44	3.00
70.46	1.00
70.48	2.00
70.5	1.00
70.52	2.00
70.54	2.00
70.56	5.00
70.58	1.00
70.6	1.00
70.62	2.00
70.64	4.00
70.66	1.00
70.68	1.00
70.7	2.00
70.72	2.00
70.74	1.00
70.76	0.00
70.78	0.00
70.8	3.00
70.82	2.00
70.84	4.00
70.86	3.00
70.88	3.00
70.9	0.00
70.92	0.00
70.94	1.00
70.96	0.00
70.98	1.00
71	0.00
71.02	5.00
71.04	3.00
71.06	0.00
71.08	1.00
71.1	2.00
71.12	2.00
71.14	2.00
71.16	2.00
71.18	1.00
71.2	0.00
71.22	4.00
71.24	1.00
71.26	0.00
71.28	1.00
71.3	0.00
71.32	3.00
71.34	2.00
71.36	2.00
71.38	2.00
71.4	2.00
71.42	2.00
71.44	2.00
71.46	0.00
71.48	1.00
71.5	0.00
71.52	1.00
71.54	1.00
71.56	0.00
71.58	1.00
71.6	1.00
71.62	0.00
71.64	2.00
71.66	1.00
71.68	1.00
71.7	0.00
71.72	2.00
71.74	0.00
71.76	0.00
71.78	1.00
71.8	0.00
71.82	2.00
71.84	1.00
71.86	2.00
71.88	0.00
71.9	0.00
71.92	2.00
71.94	1.00
71.96	2.00
71.98	0.00
72	2.00
72.02	1.00
72.04	0.00
72.06	1.00
72.08	1.00
72.1	2.00
72.12	0.00
72.14	0.00
72.16	0.00
72.18	1.00
72.2	3.00
72.22	1.00
72.24	1.00
72.26	0.00
72.28	0.00
72.3	2.00
72.32	0.00
72.34	2.00
72.36	2.00
72.38	1.00
72.4	0.00
72.42	3.00
72.44	0.00
72.46	0.00
72.48	1.00
72.5	0.00
72.52	0.00
72.54	0.00
72.56	0.00
72.58	0.00
72.6	0.00
72.62	0.00
72.64	1.00
72.66	1.00
72.68	0.00
72.7	1.00
72.72	0.00
72.74	1.00
72.76	1.00
72.78	0.00
72.8	1.00
72.82	0.00
72.84	0.00
72.86	0.00
72.88	1.00
72.9	0.00
72.92	1.00
72.94	0.00
72.96	0.00
72.98	0.00
73	0.00
73.02	0.00
73.04	0.00
73.06	0.00
73.08	1.00
73.1	0.00
73.12	1.00
73.14	1.00
73.16	0.00
73.18	0.00
73.2	1.00
73.22	0.00
73.24	0.00
73.26	0.00
73.28	1.00
73.3	0.00
73.32	0.00
73.34	1.00
73.36	0.00
73.38	0.00
73.4	0.00
73.42	0.00
73.44	0.00
73.46	0.00
73.48	0.00
73.5	0.00
73.52	1.00
73.54	0.00
73.56	0.00
73.58	0.00
73.6	1.00
73.62	0.00
73.64	1.00
73.66	0.00
73.68	1.00
73.7	0.00
73.72	1.00
73.74	0.00
73.76	0.00
73.78	0.00
73.8	0.00
73.82	1.00
73.84	0.00
73.86	0.00
73.88	0.00
73.9	1.00
73.92	2.00
73.94	0.00
73.96	1.00
73.98	0.00
74	0.00
74.02	1.00
74.04	0.00
74.06	2.00
74.08	1.00
74.1	0.00
74.12	0.00
74.14	0.00
74.16	0.00
74.18	0.00
74.2	0.00
74.22	0.00
74.24	0.00
74.26	0.00
74.28	0.00
74.3	0.00
74.32	0.00
74.34	0.00
74.36	0.00
74.38	2.00
74.4	0.00
74.42	0.00
74.44	2.00
74.46	1.00
74.48	0.00
74.5	0.00
74.52	0.00
74.54	0.00
74.56	1.00
74.58	0.00
74.6	0.00
74.62	0.00
74.64	0.00
74.66	0.00
74.68	0.00
74.7	0.00
74.72	1.00
74.74	0.00
74.76	0.00
74.78	1.00
74.8	0.00
74.82	0.00
74.84	0.00
74.86	0.00
74.88	0.00
74.9	0.00
74.92	0.00
74.94	0.00
74.96	0.00
74.98	0.00
75	0.00
75.02	0.00
75.04	1.00
75.06	0.00
75.08	0.00
75.1	0.00
75.12	0.00
75.14	0.00
75.16	0.00
75.18	0.00
75.2	0.00
75.22	0.00
75.24	0.00
75.26	0.00
75.28	0.00
75.3	1.00
75.32	0.00
75.34	0.00
75.36	0.00
75.38	1.00
75.4	0.00
75.42	0.00
75.44	0.00
75.46	0.00
75.48	0.00
75.5	0.00
75.52	0.00
75.54	0.00
75.56	1.00
75.58	1.00
75.6	0.00
75.62	1.00
75.64	0.00
75.66	1.00
75.68	0.00
75.7	1.00
75.72	0.00
75.74	0.00
75.76	0.00
75.78	0.00
75.8	0.00
75.82	0.00
75.84	0.00
75.86	0.00
75.88	0.00
75.9	0.00
75.92	0.00
75.94	0.00
75.96	0.00
75.98	1.00
76	1.00
76.02	0.00
76.04	1.00
76.06	0.00
76.08	0.00
76.1	0.00
76.12	0.00
76.14	2.00
76.16	1.00
76.18	0.00
76.2	0.00
76.22	1.00
76.24	0.00
76.26	0.00
76.28	0.00
76.3	1.00
76.32	0.00
76.34	0.00
76.36	1.00
76.38	0.00
76.4	0.00
76.42	1.00
76.44	0.00
76.46	0.00
76.48	1.00
76.5	0.00
76.52	0.00
76.54	0.00
76.56	1.00
76.58	2.00
76.6	0.00
76.62	0.00
76.64	0.00
76.66	0.00
76.68	0.00
76.7	0.00
76.72	0.00
76.74	0.00
76.76	0.00
76.78	0.00
76.8	0.00
76.82	1.00
76.84	0.00
76.86	0.00
76.88	1.00
76.9	0.00
76.92	0.00
76.94	0.00
76.96	0.00
76.98	1.00
77	0.00
77.02	0.00
77.04	1.00
77.06	0.00
77.08	0.00
77.1	0.00
77.12	0.00
77.14	0.00
77.16	0.00
77.18	0.00
77.2	0.00
77.22	1.00
77.24	0.00
77.26	1.00
77.28	0.00
77.3	0.00
77.32	0.00
77.34	0.00
77.36	0.00
77.38	0.00
77.4	0.00
77.42	0.00
77.44	0.00
77.46	0.00
77.48	0.00
77.5	0.00
77.52	0.00
77.54	0.00
77.56	0.00
77.58	0.00
77.6	0.00
77.62	0.00
77.64	1.00
77.66	0.00
77.68	0.00
77.7	1.00
77.72	0.00
77.74	0.00
77.76	0.00
77.78	1.00
77.8	0.00
77.82	1.00
77.84	0.00
77.86	0.00
77.88	0.00
77.9	0.00
77.92	0.00
77.94	0.00
77.96	1.00
77.98	0.00
78	0.00
78.02	0.00
78.04	0.00
78.06	1.00
78.08	0.00
78.1	0.00
78.12	0.00
78.14	0.00
78.16	0.00
78.18	1.00
78.2	1.00
78.22	0.00
78.24	0.00
78.26	0.00
78.28	1.00
78.3	0.00
78.32	0.00
78.34	0.00
78.36	0.00
78.38	0.00
78.4	1.00
78.42	0.00
78.44	1.00
78.46	0.00
78.48	0.00
78.5	0.00
78.52	0.00
78.54	0.00
78.56	0.00
78.58	0.00
78.6	0.00
78.62	1.00
78.64	1.00
78.66	0.00
78.68	0.00
78.7	0.00
78.72	0.00
78.74	0.00
78.76	1.00
78.78	0.00
78.8	0.00
78.82	0.00
78.84	0.00
78.86	0.00
78.88	0.00
78.9	0.00
78.92	0.00
78.94	0.00
78.96	1.00
78.98	0.00
79	0.00
79.02	0.00
79.04	1.00
79.06	0.00
79.08	0.00
79.1	0.00
79.12	0.00
79.14	1.00
79.16	0.00
79.18	0.00
79.2	0.00
79.22	0.00
79.24	0.00
79.26	0.00
79.28	0.00
79.3	0.00
79.32	0.00
79.34	0.00
79.36	0.00
79.38	2.00
79.4	0.00
79.42	0.00
79.44	0.00
79.46	0.00
79.48	0.00
79.5	0.00
79.52	1.00
79.54	0.00
79.56	0.00
79.58	0.00
79.6	0.00
79.62	0.00
79.64	0.00
79.66	1.00
79.68	0.00
79.7	0.00
79.72	0.00
79.74	1.00
79.76	0.00
79.78	0.00
79.8	0.00
79.82	1.00
79.84	1.00
79.86	0.00
79.88	0.00
79.9	0.00
79.92	1.00
79.94	1.00
79.96	0.00
79.98	1.00
80	0.00
80.02	1.00
80.04	0.00
80.06	0.00
80.08	0.00
80.1	0.00
80.12	0.00
80.14	0.00
80.16	0.00
80.18	0.00
80.2	0.00
80.22	0.00
80.24	0.00
80.26	0.00
80.28	0.00
80.3	0.00
80.32	1.00
80.34	0.00
80.36	0.00
80.38	0.00
80.4	0.00
80.42	1.00
80.44	0.00
80.46	0.00
80.48	0.00
80.5	0.00
80.52	1.00
80.54	0.00
80.56	0.00
80.58	0.00
80.6	3.00
80.62	0.00
80.64	1.00
80.66	0.00
80.68	0.00
80.7	0.00
80.72	0.00
80.74	0.00
80.76	0.00
80.78	2.00
80.8	0.00
80.82	1.00
80.84	2.00
80.86	0.00
80.88	0.00
80.9	0.00
80.92	2.00
80.94	1.00
80.96	1.00
80.98	2.00
81	0.00
81.02	1.00
81.04	2.00
81.06	1.00
81.08	3.00
81.1	2.00
81.12	1.00
81.14	1.00
81.16	1.00
81.18	0.00
81.2	2.00
81.22	0.00
81.24	4.00
81.26	1.00
81.28	2.00
81.3	0.00
81.32	3.00
81.34	0.00
81.36	3.00
81.38	3.00
81.4	1.00
81.42	4.00
81.44	1.00
81.46	1.00
81.48	4.00
81.5	1.00
81.52	2.00
81.54	1.00
81.56	1.00
81.58	1.00
81.6	5.00
81.62	3.00
81.64	7.00
81.66	3.00
81.68	2.00
81.7	4.00
81.72	7.00
81.74	3.00
81.76	6.00
81.78	3.00
81.8	8.00
81.82	5.00
81.84	6.00
81.86	4.00
81.88	2.00
81.9	1.00
81.92	5.00
81.94	5.00
81.96	4.00
81.98	6.00
82	7.00
82.02	6.00
82.04	7.00
82.06	4.00
82.08	1.00
82.1	2.00
82.12	6.00
82.14	2.00
82.16	6.00
82.18	2.00
82.2	1.00
82.22	5.00
82.24	3.00
82.26	2.00
82.28	5.00
82.3	2.00
82.32	1.00
82.34	3.00
82.36	6.00
82.38	4.00
82.4	4.00
82.42	1.00
82.44	1.00
82.46	5.00
82.48	1.00
82.5	3.00
82.52	3.00
82.54	1.00
82.56	1.00
82.58	2.00
82.6	0.00
82.62	3.00
82.64	3.00
82.66	0.00
82.68	1.00
82.7	0.00
82.72	3.00
82.74	3.00
82.76	1.00
82.78	0.00
82.8	0.00
82.82	2.00
82.84	0.00
82.86	0.00
82.88	1.00
82.9	0.00
82.92	1.00
82.94	0.00
82.96	1.00
82.98	0.00
83	1.00
83.02	0.00
83.04	1.00
83.06	0.00
83.08	1.00
83.1	1.00
83.12	1.00
83.14	2.00
83.16	1.00
83.18	0.00
83.2	0.00
83.22	0.00
83.24	0.00
83.26	0.00
83.28	1.00
83.3	2.00
83.32	0.00
83.34	0.00
83.36	0.00
83.38	0.00
83.4	1.00
83.42	0.00
83.44	0.00
83.46	1.00
83.48	0.00
83.5	0.00
83.52	0.00
83.54	0.00
83.56	0.00
83.58	0.00
83.6	0.00
83.62	0.00
83.64	1.00
83.66	1.00
83.68	0.00
83.7	2.00
83.72	0.00
83.74	0.00
83.76	0.00
83.78	0.00
83.8	0.00
83.82	1.00
83.84	0.00
83.86	0.00
83.88	0.00
83.9	0.00
83.92	1.00
83.94	0.00
83.96	0.00
83.98	0.00
84	0.00
84.02	0.00
84.04	0.00
84.06	0.00
84.08	0.00
84.1	0.00
84.12	0.00
84.14	1.00
84.16	0.00
84.18	0.00
84.2	0.00
84.22	0.00
84.24	0.00
84.26	0.00
84.28	2.00
84.3	0.00
84.32	0.00
84.34	0.00
84.36	0.00
84.38	0.00
84.4	2.00
84.42	1.00
84.44	0.00
84.46	0.00
84.48	1.00
84.5	0.00
84.52	0.00
84.54	0.00
84.56	0.00
84.58	0.00
84.6	1.00
84.62	0.00
84.64	0.00
84.66	1.00
84.68	0.00
84.7	0.00
84.72	0.00
84.74	0.00
84.76	0.00
84.78	0.00
84.8	0.00
84.82	0.00
84.84	0.00
84.86	0.00
84.88	0.00
84.9	0.00
84.92	0.00
84.94	0.00
84.96	0.00
84.98	0.00
85	0.00
85.02	0.00
85.04	1.00
85.06	0.00
85.08	1.00
85.1	0.00
85.12	0.00
85.14	1.00
85.16	1.00
85.18	1.00
85.2	0.00
85.22	0.00
85.24	0.00
85.26	0.00
85.28	0.00
85.3	0.00
85.32	0.00
85.34	1.00
85.36	1.00
85.38	0.00
85.4	0.00
85.42	0.00
85.44	0.00
85.46	0.00
85.48	1.00
85.5	0.00
85.52	0.00
85.54	1.00
85.56	0.00
85.58	0.00
85.6	0.00
85.62	0.00
85.64	0.00
85.66	0.00
85.68	0.00
85.7	0.00
85.72	0.00
85.74	0.00
85.76	0.00
85.78	0.00
85.8	0.00
85.82	0.00
85.84	0.00
85.86	0.00
85.88	1.00
85.9	0.00
85.92	0.00
85.94	0.00
85.96	0.00
85.98	1.00
86	0.00
86.02	1.00
86.04	0.00
86.06	0.00
86.08	0.00
86.1	0.00
86.12	0.00
86.14	0.00
86.16	0.00
86.18	0.00
86.2	0.00
86.22	1.00
86.24	0.00
86.26	0.00
86.28	0.00
86.3	0.00
86.32	0.00
86.34	1.00
86.36	0.00
86.38	0.00
86.4	0.00
86.42	0.00
86.44	0.00
86.46	0.00
86.48	0.00
86.5	0.00
86.52	0.00
86.54	0.00
86.56	0.00
86.58	1.00
86.6	0.00
86.62	0.00
86.64	0.00
86.66	0.00
86.68	0.00
86.7	0.00
86.72	1.00
86.74	0.00
86.76	0.00
86.78	0.00
86.8	0.00
86.82	0.00
86.84	0.00
86.86	0.00
86.88	0.00
86.9	0.00
86.92	0.00
86.94	0.00
86.96	0.00
86.98	0.00
87	0.00
87.02	0.00
87.04	1.00
87.06	0.00
87.08	0.00
87.1	0.00
87.12	0.00
87.14	0.00
87.16	1.00
87.18	0.00
87.2	0.00
87.22	0.00
87.24	0.00
87.26	0.00
87.28	0.00
87.3	0.00
87.32	0.00
87.34	0.00
87.36	0.00
87.38	0.00
87.4	0.00
87.42	0.00
87.44	0.00
87.46	0.00
87.48	0.00
87.5	0.00
87.52	0.00
87.54	0.00
87.56	0.00
87.58	1.00
87.6	0.00
87.62	0.00
87.64	0.00
87.66	0.00
87.68	0.00
87.7	0.00
87.72	1.00
87.74	0.00
87.76	0.00
87.78	0.00
87.8	0.00
87.82	0.00
87.84	0.00
87.86	0.00
87.88	0.00
87.9	0.00
87.92	0.00
87.94	0.00
87.96	0.00
87.98	0.00
88	1.00
88.02	0.00
88.04	0.00
88.06	0.00
88.08	0.00
88.1	0.00
88.12	0.00
88.14	0.00
88.16	0.00
88.18	0.00
88.2	0.00
88.22	0.00
88.24	0.00
88.26	0.00
88.28	0.00
88.3	1.00
88.32	0.00
88.34	0.00
88.36	0.00
88.38	0.00
88.4	0.00
88.42	0.00
88.44	0.00
88.46	0.00
88.48	0.00
88.5	0.00
88.52	0.00
88.54	0.00
88.56	0.00
88.58	0.00
88.6	1.00
88.62	0.00
88.64	0.00
88.66	0.00
88.68	0.00
88.7	0.00
88.72	0.00
88.74	0.00
88.76	0.00
88.78	0.00
88.8	0.00
88.82	0.00
88.84	0.00
88.86	1.00
88.88	0.00
88.9	0.00
88.92	1.00
88.94	0.00
88.96	0.00
88.98	0.00
89	0.00
89.02	0.00
89.04	0.00
89.06	0.00
89.08	1.00
89.1	0.00
89.12	0.00
89.14	0.00
89.16	0.00
89.18	0.00
89.2	0.00
89.22	0.00
89.24	0.00
89.26	0.00
89.28	0.00
89.3	0.00
89.32	0.00
89.34	0.00
89.36	0.00
89.38	0.00
89.4	0.00
89.42	0.00
89.44	0.00
89.46	0.00
89.48	0.00
89.5	0.00
89.52	1.00
89.54	0.00
89.56	0.00
89.58	0.00
89.6	1.00
89.62	0.00
89.64	1.00
89.66	0.00
89.68	0.00
89.7	0.00
89.72	0.00
89.74	0.00
89.76	0.00
89.78	0.00
89.8	0.00
89.82	1.00
89.84	0.00
89.86	1.00
89.88	0.00
89.9	0.00
89.92	0.00
89.94	0.00
89.96	0.00
89.98	0.00
90	0.00
